01_mav,02_mav,03_mav,04_mav,05_mav,06_mav,07_mav,08_mav,01_rms,02_rms,03_rms,04_rms,05_rms,06_rms,07_rms,08_rms,01_iemg,02_iemg,03_iemg,04_iemg,05_iemg,06_iemg,07_iemg,08_iemg,01_var,02_var,03_var,04_var,05_var,06_var,07_var,08_var,01_wl,02_wl,03_wl,04_wl,05_wl,06_wl,07_wl,08_wl,01_zc,02_zc,03_zc,04_zc,05_zc,06_zc,07_zc,08_zc
1.725,86.3,4.425,2.6,2.525,5.75,1.95,5.25,2.103568396796263,90.35955953854578,5.465802777268862,3.024896692450835,3.1344856037314957,6.700746227100382,2.4698178070456938,6.793379129711516,69,3452,177,104,101,230,78,210,2.394375,7645.010000000002,28.249375000000004,7.5875,7.344375000000001,43.9,5.1975,42.7275,73,4177,276,130,124,330,103,345,9,19,17,17,8,16,8,12
1.75,86.3,4.475,2.575,2.55,5.825,1.95,5.4,2.1095023109728985,90.35955953854578,5.5385016024191955,3.0124740662784135,3.146426544510455,6.7841727572342965,2.4698178070456938,7.032069396699666,70,3452,179,103,102,233,78,216,2.3475,7645.010000000002,28.919375000000002,7.449375000000001,7.4975000000000005,45.169375,5.1975,45.45,71,4175,290,134,129,340,105,358,9,19,18,18,9,17,9,13
1.725,86.1,4.35,2.55,2.575,5.825,1.95,5.375,2.091650066335189,90.23995789006109,5.481788029466299,3.0083217912982647,3.158322339470751,6.7841727572342965,2.4698178070456938,7.026734661277598,69,3444,174,102,103,233,78,215,2.3443750000000003,7632.490000000001,28.610000000000003,7.359999999999999,7.799375,45.074374999999996,5.1975,45.474374999999995,70,4350,296,133,128,347,105,369,9,20,18,17,9,18,9,13
1.725,87.175,4.325,2.55,2.725,5.95,1.875,5.4,2.091650066335189,91.20567416559126,5.474942922076905,3.0083217912982647,3.29772648956823,6.866585760041158,2.4238399287081647,7.0285133563222315,69,3487,173,102,109,238,75,216,2.344375,7757.969375000001,28.709375,7.359999999999999,8.234375,45.94,5.109375,45.597500000000004,69,4369,287,131,129,347,105,364,9,20,17,17,10,18,9,13
1.675,86.0,4.275,2.55,2.65,5.875,1.925,5.425,2.0676073128135335,90.29285686032976,5.410637670367514,3.0083217912982647,3.170173496829472,6.795218907437787,2.5049950099750697,7.0551399702628155,67,3440,171,102,106,235,77,217,2.384375,7646.55,27.894375000000004,7.359999999999999,7.647499999999999,45.124375,5.4193750000000005,46.069374999999994,69,4204,278,129,122,330,104,353,9,19,16,16,9,17,8,12
1.725,86.0,4.35,2.625,2.675,5.75,1.925,5.525,2.115419580130618,90.29285686032976,5.513619500836088,3.07001628660175,3.1898275815473163,6.637017402418047,2.5049950099750697,7.237057413065064,69,3440,174,105,107,230,77,221,2.444375,7646.55,28.8375,7.9243749999999995,7.849375,42.727500000000006,5.4193750000000005,48.274375,70,4191,292,137,129,330,107,369,9,19,17,17,10,18,8,13
1.65,85.775,4.2,2.625,2.725,5.875,1.95,5.5,2.0615528128088303,90.15445080527084,5.403702434442518,3.07001628660175,3.2365104665364517,6.683935966180406,2.5298221281347035,7.224956747275377,66,3431,168,105,109,235,78,220,2.4275,7631.649374999999,27.99,7.7993749999999995,8.299375000000001,43.624375,5.760000000000001,48.2,72,4360,294,138,128,330,105,377,9,20,17,17,10,18,8,13
1.675,86.775,4.175,2.6,2.75,5.975,2.025,5.525,2.091650066335189,91.13629902514147,5.40138871032256,3.0495901363953815,3.24037034920393,6.728670002311007,2.57390753524675,7.226686654338903,67,3471,167,104,110,239,81,221,2.484375,7764.099375,28.019375000000004,7.7375,8.25,44.009375,5.859375,48.324374999999996,75,4401,289,138,127,335,107,375,9,20,16,17,11,19,9,13
1.7,85.625,4.15,2.6,2.75,6.05,2.05,5.525,2.1213203435596424,90.33783814105804,5.380520420925842,3.0495901363953815,3.24037034920393,6.81175454637056,2.6172504656604803,7.226686654338903,68,3425,166,104,110,242,82,221,2.54,7671.409375,27.74,7.7375,8.25,44.959999999999994,6.04,48.324375,74,4257,282,133,121,321,105,363,9,19,15,16,10,18,9,12
1.625,85.625,4.275,2.525,2.675,5.95,2.1,5.625,2.0676073128135335,90.33783814105804,5.574495492867493,3.0124740662784135,3.158322339470751,6.663332499583072,2.6362852652928135,7.404390589373308,65,3425,171,101,107,238,84,225,2.5193749999999997,7671.409375,29.574374999999996,7.319374999999999,7.494375,42.71,6.227500000000001,50.519375000000004,75,4239,291,132,123,322,110,376,9,19,16,16,10,18,10,13
1.6,85.45,4.4,2.525,2.675,5.875,2.125,5.6,2.0615528128088303,90.23220046081111,5.630275304103699,3.0124740662784135,3.158322339470751,6.635133759013454,2.659887215654077,7.395944834840239,64,3418,176,101,107,235,85,224,2.5599999999999996,7660.047499999998,29.877499999999998,7.319374999999999,7.649375000000001,42.524375,6.309375,50.4975,73,4402,294,130,121,328,114,384,9,20,16,16,10,19,11,13
1.575,86.225,4.4,2.525,2.6,5.8,2.125,5.6,2.03100960115899,90.9891477045477,5.630275304103699,3.0124740662784135,3.0983866769659336,6.572670690061994,2.659887215654077,7.395944834840239,63,3449,176,101,104,232,85,224,2.7443750000000002,7762.599375,30.26,7.319374999999999,7.4975,41.8775,6.309375,50.4975,74,4441,294,129,122,327,111,382,9,20,16,16,10,19,11,13
1.6,84.875,4.375,2.5,2.55,5.85,2.2,5.525,2.0615528128088303,90.0945336854573,5.610258461069329,2.9748949561287032,3.03315017762062,6.603029607687671,2.701851217221259,7.329733965158627,64,3395,175,100,102,234,88,221,2.81,7660.134375,29.974375,7.159999999999999,7.24,42.16,6.3975,49.209375,79,4298,283,125,117,317,110,367,10,19,15,15,9,18,11,12
1.55,84.875,4.45,2.5,2.5,5.875,2.225,5.6,2.0371548787463363,90.0945336854573,5.722761571129799,2.9748949561287032,3.0166206257996713,6.635133759013454,2.715695122800054,7.446475676452586,62,3395,178,100,100,235,89,224,2.8274999999999997,7660.134375,31.060000000000002,7.159999999999999,6.9975,42.644375000000004,6.519375000000001,50.61,79,4272,293,130,117,322,114,376,9,19,16,16,9,18,12,13
1.55,84.55,4.375,2.5,2.525,5.925,2.25,5.6,2.0371548787463363,89.9049498081168,5.703069349043548,2.9748949561287032,3.029026246172192,6.650187967268294,2.7202941017470885,7.446475676452586,62,3382,175,100,101,237,90,224,2.8274999999999997,7639.797500000001,31.024375,7.027500000000001,6.999375000000001,42.724374999999995,6.4975,50.8275,78,4430,301,130,115,326,113,389,8,20,16,16,9,19,12,14
1.55,85.1,4.45,2.55,2.525,5.775,2.15,5.575,2.0371548787463363,90.423448286382,5.735852159879995,3.0083217912982647,3.029026246172192,6.513447627792826,2.6457513110645907,7.441438033068608,62,3404,178,102,101,231,86,223,2.9400000000000004,7709.839999999999,31.21,7.090000000000001,6.999375000000001,41.26937499999999,6.277500000000001,51.069375,77,4469,297,131,117,326,113,379,8,20,15,16,9,19,12,13
1.575,83.925,4.4,2.55,2.45,5.675,2.15,5.425,2.043281674170255,89.62072862903983,5.683308895353129,3.0083217912982647,2.9664793948382653,6.405076111959951,2.6457513110645907,7.339959127951599,63,3357,176,102,98,227,86,217,3.019375,7614.694375000001,30.4775,7.090000000000001,6.840000000000001,40.074375,6.277500000000001,48.924375000000005,76,4315,292,127,114,309,113,361,8,19,15,15,8,18,12,12
1.65,83.925,4.375,2.55,2.5,5.6,2.275,5.325,2.1330729007701543,89.62072862903983,5.654644109048774,3.0083217912982647,3.03315017762062,6.304760106459246,2.7613402542968153,7.216300991505274,66,3357,175,102,100,224,91,213,3.1100000000000003,7614.694375000001,30.219375000000003,7.090000000000001,7.3775,38.647499999999994,7.099375,47.559375,80,4293,296,125,118,308,119,363,9,19,16,15,9,18,13,13
1.675,83.475,4.375,2.5,2.5,5.525,2.225,5.225,2.138924963620744,89.3642825741918,5.654644109048774,2.958039891549808,3.03315017762062,6.286891123599962,2.7431733448690405,7.188532534530257,67,3339,175,100,100,221,89,209,3.0743750000000003,7586.974375,30.219375000000003,6.9275,7.3775,38.574375,7.069375000000001,47.574374999999996,82,4441,302,126,120,314,123,365,9,20,16,16,9,18,13,13
1.7,83.75,4.375,2.625,2.525,5.5,2.275,5.325,2.1563858652847827,89.63007307818063,5.654644109048774,3.0618621784789726,3.0454884665682123,6.272957835024878,2.779388421937459,7.230145226757205,68,3350,175,105,101,220,91,213,2.96,7623.4875,30.219375000000003,7.199375000000001,7.384375,38.447500000000005,7.199375000000001,48.569374999999994,79,4489,297,123,121,313,126,363,8,20,16,16,9,18,13,13
1.65,82.425,4.4,2.6,2.55,5.475,2.35,5.25,2.1095023109728985,88.79090606588042,5.678908345800274,3.0166206257996713,3.0740852297878796,6.242996075603444,2.8460498941515415,7.162401831787993,66,3297,176,104,102,219,94,210,2.8875,7525.669375,30.560000000000002,6.9975,7.49,38.119375000000005,7.459999999999999,47.3,77,4341,288,114,120,299,125,345,8,19,15,15,9,17,13,12
1.7,82.225,4.35,2.575,2.6,5.4,2.425,5.25,2.1330729007701543,88.51341706204772,5.599107071667768,2.9958304357890486,3.0903074280724887,6.1400325732035,2.9111853256019273,7.162401831787993,68,3289,174,103,104,216,97,210,2.86,7468.859375,29.7875,6.799375,7.727500000000001,36.7,7.949375000000001,47.3,77,4306,291,117,126,302,133,353,8,19,15,15,10,17,14,13
1.7,81.925,4.35,2.575,2.65,5.425,2.425,5.275,2.1330729007701543,88.34039279967007,5.599107071667768,2.9958304357890486,3.1064449134018135,6.146136998147698,2.9111853256019273,7.174608003229166,68,3277,174,103,106,217,97,211,2.86,7449.644374999999,29.660000000000004,6.799375,7.959999999999999,36.724374999999995,7.949375000000001,47.374375,76,4439,297,118,124,304,133,356,7,20,15,16,10,18,14,13
1.7,81.85,4.35,2.525,2.625,5.35,2.425,5.35,2.1330729007701543,88.26692472268421,5.599107071667768,2.962262648719725,3.09434968935316,6.06630035524124,2.9111853256019273,7.19027120489902,68,3274,174,101,105,214,97,214,2.7275,7439.4875,29.660000000000004,6.744375,7.949374999999999,35.897499999999994,7.949375000000001,47.8975,74,4468,291,117,124,306,136,359,6,20,15,16,10,18,14,14
1.725,80.65,4.325,2.45,2.575,5.25,2.475,5.4,2.1505813167606567,87.54341779939826,5.570008976653448,2.898275349237888,3.029026246172192,5.9833101206606365,2.962262648719725,7.224956747275377,69,3226,173,98,103,210,99,216,2.734375,7355.847500000001,29.269375000000004,6.577499999999999,7.674374999999998,35.0775,8.174375000000001,48.59000000000001,73,4320,281,111,121,292,136,345,6,19,14,15,10,17,14,13
1.75,80.3,4.325,2.525,2.65,5.225,2.55,5.275,2.1908902300206643,87.06233399122723,5.570008976653448,2.987473849257931,3.0659419433511785,5.947688626685159,3.0,7.040951640225915,70,3212,173,101,106,209,102,211,2.8400000000000003,7259.44,29.269375000000004,7.299375,8.0775,34.609375,8.51,46.424375,73,4275,290,113,125,294,142,349,6,19,15,15,11,18,15,14
1.625,79.875,4.35,2.5,2.625,5.3,2.575,5.2,2.043281674170255,86.81056963296578,5.585696017507576,2.9748949561287032,3.053686296920494,5.966573556070519,3.0124740662784135,7.024955515873392,65,3195,174,100,105,212,103,208,2.549375,7230.699374999999,29.377500000000005,7.2875,8.169375,34.6975,8.474375,46.46,71,4401,293,117,124,300,140,353,5,20,15,16,11,19,15,14
1.675,79.65,4.4,2.4,2.525,5.35,2.45,5.225,2.091650066335189,86.5886828632934,5.60357029044876,2.9068883707497264,2.9538110975483858,6.016643582596529,2.8635642126552705,7.030291601349122,67,3186,176,96,101,214,98,209,2.484375,7200.0375,29.8375,7.1275,7.774375000000001,35.2,7.840000000000001,46.619375000000005,71,4421,292,118,125,298,140,351,4,20,15,16,11,19,15,14
1.65,78.75,4.325,2.375,2.575,5.225,2.475,5.175,2.073644135332772,86.02557759178372,5.529466520379701,2.876629972728505,3.037268509697488,5.837379549078507,2.8939592256975564,7.0017854865741205,66,3150,173,95,103,209,99,207,2.4775,7133.077499999999,28.819375,7.009375,8.174375000000001,33.309375,7.984375,46.049375,72,4267,274,115,126,281,140,333,4,19,14,15,11,18,15,13
1.575,78.375,4.2,2.35,2.625,5.175,2.525,5.025,2.018662923818635,85.5030701203179,5.310367218940701,2.8635642126552705,3.053686296920494,5.7857583772570385,2.9453352950046283,6.76202632352167,63,3135,168,94,105,207,101,201,2.449375,7031.049375,26.76,6.8775,8.374375,32.619375000000005,8.344375000000001,43.244375000000005,72,4232,274,117,132,283,145,331,4,19,15,16,12,18,16,14
1.55,77.975,4.2,2.4,2.625,5.175,2.525,5.025,2.0,85.27822113529339,5.310367218940701,2.8809720581775866,3.053686296920494,5.7857583772570385,2.9453352950046283,6.76202632352167,62,3119,168,96,105,207,101,201,2.4375,7005.869374999999,26.76,6.859999999999999,8.374375,32.619375000000005,8.344375,43.399375,71,4344,279,114,134,286,149,340,4,20,15,17,13,19,17,15
1.6,77.25,4.25,2.3,2.55,5.075,2.525,5.075,2.0248456731316584,84.58250410102552,5.319774431308154,2.7386127875258306,2.9916550603303182,5.71620503481112,2.9453352950046283,6.7767986542319525,64,3090,170,92,102,203,101,203,2.66,7004.1375,26.9775,6.289999999999999,8.227500000000001,32.149375000000006,8.344375000000001,43.894375000000004,71,4423,279,113,136,290,149,336,5,21,15,17,13,19,17,14
1.6,76.825,4.325,2.25,2.475,4.95,2.575,5.125,2.0248456731316584,84.28300540441116,5.382843114934709,2.6645825188948455,2.9538110975483858,5.639148871948674,2.979093821953246,6.820923691113983,64,3073,173,90,99,198,103,205,2.66,7017.599375,27.084375,5.9975,8.124374999999999,31.497500000000002,8.484375,43.549375,75,4244,278,106,133,273,147,327,6,20,15,16,12,18,16,14
1.575,75.55,4.225,2.175,2.45,4.675,2.475,4.825,2.006240264773888,82.73330647326988,5.308012810836085,2.622022120425379,2.949576240750525,5.312720583655798,2.9111853256019273,6.459489143887464,63,3022,169,87,98,187,99,193,2.644375,6638.8775,26.549374999999998,5.609375,8.059999999999999,27.459375,7.949375000000001,39.694375,77,4187,281,108,131,260,145,320,6,20,15,16,12,17,15,14
1.525,76.7,4.275,2.2,2.6,4.8,2.65,4.95,1.981161275615895,83.8379389059631,5.36423340282654,2.6457513110645907,3.146426544510455,5.440588203494177,3.170173496829472,6.545991139621257,61,3068,171,88,104,192,106,198,2.659375,6788.55,27.824374999999996,5.4375,8.997499999999999,28.6,9.24,41.41000000000001,77,4170,284,105,137,267,150,325,6,20,15,15,12,17,15,15
1.525,76.05,4.35,2.1,2.575,4.725,2.6,5.025,1.981161275615895,83.15287126732305,5.399073994677235,2.569046515733026,3.1344856037314957,5.4198708471697,3.122498999199199,6.585969936159746,61,3042,174,84,103,189,104,201,2.769375,6791.19,28.339999999999996,5.277500000000001,9.059375,28.519375000000004,9.1875,42.109375,76,4310,281,108,144,273,159,323,5,21,15,15,13,17,16,15
1.625,76.325,4.275,2.1,2.575,4.6,2.55,5.05,2.1272047386182646,83.37910409688989,5.3221236362940685,2.569046515733026,3.1344856037314957,5.361902647381804,3.057776970284131,6.610597552415364,65,3053,171,84,103,184,102,202,3.024375,6893.169375,26.944374999999997,5.2775,9.059375,28.110000000000003,8.86,41.597500000000004,76,4121,273,106,143,259,156,316,5,20,15,14,13,16,16,15
1.6,74.8,4.15,2.1,2.625,4.5,2.5,4.725,2.073644135332772,81.59503661375489,5.167204273105526,2.569046515733026,3.181980515339464,5.229722745997153,3.024896692450835,6.282913336979908,64,2992,166,84,105,180,100,189,2.8600000000000003,6501.5,25.5975,5.0375,9.444374999999999,26.027499999999996,8.51,38.209375,73,4080,266,103,145,250,156,310,5,20,15,13,13,15,16,15
1.6,75.65,4.175,2.1,2.65,4.525,2.55,4.825,2.073644135332772,82.33134275596385,5.179285665031424,2.569046515733026,3.2093613071762426,5.25594901040716,3.057776970284131,6.314665470157545,64,3026,167,84,106,181,102,193,2.8600000000000003,6600.227499999999,25.969374999999996,5.0375,9.5775,26.244375,8.540000000000001,38.824374999999996,74,4056,272,104,153,248,154,313,5,20,16,13,14,15,15,15
1.55,75.5,4.175,2.125,2.6,4.5,2.6,4.85,2.0248456731316584,82.1544277565123,5.179285665031424,2.602883016964074,3.1780497164141406,5.248809388804284,3.122498999199199,6.320601237224193,62,3020,167,85,104,180,104,194,2.7775000000000003,6677.1,26.059375,5.619375,9.5375,26.2275,9.260000000000002,39.0475,72,4194,266,110,156,249,161,309,5,21,15,14,15,15,16,14
1.675,75.85,4.25,2.1,2.6,4.425,2.575,4.95,2.2304708023195463,82.422387735372,5.300943312279429,2.569046515733026,3.1780497164141406,5.18411033833193,3.110466202999158,6.430396566309111,67,3034,170,84,104,177,103,198,3.3493749999999998,6764.827499999999,26.409999999999997,5.4975000000000005,9.5375,26.019375000000004,9.219375,39.66,77,4035,261,112,155,238,162,301,5,20,15,14,15,14,16,14
1.725,74.45,4.125,2.075,2.575,4.325,2.55,4.65,2.274862633215465,80.72329279706075,5.145386282875174,2.564176280991617,3.1662280397975127,5.0472764933179555,3.0903074280724887,6.0456596000767355,69,2978,165,83,103,173,102,186,3.4193749999999996,6410.160000000001,25.094375000000003,5.4193750000000005,9.344375,23.849375000000002,8.91,35.55,80,3999,258,114,159,236,160,295,5,20,15,14,15,14,16,14
1.7,75.35,4.25,2.125,2.625,4.45,2.675,4.725,2.2693611435820435,81.47791111706289,5.205766033928148,2.583602136552763,3.2132538026119257,5.13322510708424,3.1898275815473163,6.076594440967736,68,3014,170,85,105,178,107,189,3.460000000000001,6513.21,25.997500000000002,5.409375,9.374375,24.390000000000004,9.319374999999999,36.159375,83,3961,266,115,154,231,163,299,5,20,16,14,14,14,16,15
1.675,75.125,4.25,2.15,2.475,4.375,2.725,4.775,2.2638462845343543,81.20544932453733,5.205766033928148,2.598076211353316,3.07001628660175,5.052227231627651,3.2054640849649214,6.093028803476971,67,3005,170,86,99,175,109,191,3.4993749999999997,6554.949374999999,25.997500000000002,5.647499999999999,8.744375,24.259375,9.509375,36.444375,82,4085,265,116,156,239,165,293,5,21,16,15,14,15,17,15
1.825,75.65,4.225,2.125,2.45,4.25,2.625,4.85,2.4545875417267156,81.57634461043226,5.179285665031424,2.564176280991617,3.0413812651491097,4.9899899799498595,3.110466202999158,6.2088646305101545,73,3026,169,85,98,170,105,194,3.9943749999999993,6643.139999999999,25.069375,5.524375000000001,8.61,23.9,9.074375,36.86,85,3937,256,113,152,232,160,284,5,20,16,15,13,14,16,15
1.85,74.35,4.125,2.075,2.45,4.15,2.575,4.55,2.4899799195977463,79.95060975377237,5.042320894191484,2.5049950099750697,3.0413812651491097,4.909175083453431,3.078148794324277,5.757603668193912,74,2974,165,83,98,166,103,182,4.097500000000001,6320.697499999999,23.924374999999998,4.894374999999999,8.61,22.659999999999997,8.709375,32.15,84,3902,248,109,157,233,160,280,5,20,16,14,14,14,16,15
1.9,75.275,4.1,2.075,2.425,4.2,2.625,4.525,2.5099800796022267,80.75069659142267,5.039841267341661,2.5049950099750697,3.0124740662784135,4.969909455915671,3.142451272494134,5.746738205277842,76,3011,164,83,97,168,105,181,4.34,6432.784375,23.96,4.894375,8.124375,22.45,8.719375,32.259375,87,3857,252,109,158,228,158,281,6,20,16,14,14,13,15,15
1.875,74.925,4.175,2.1,2.4,4.175,2.6,4.55,2.4849547279578355,80.30737824135463,5.062114182829147,2.5298221281347035,3.0083217912982647,4.947221442385614,3.122498999199199,5.75325994545701,75,2997,167,84,96,167,104,182,4.5493749999999995,6430.999375,24.359375,5.297499999999999,8.147499999999999,22.849375000000002,8.8475,32.377500000000005,87,3971,251,113,156,235,163,276,6,21,16,15,14,14,16,15
1.875,75.65,4.225,2.125,2.275,3.95,2.575,4.65,2.4849547279578355,80.79789601221061,5.111262075065218,2.55440795488896,2.8591956910991594,4.738143096192854,3.086259872402193,5.890670590009257,75,3026,169,85,91,158,103,186,4.5493749999999995,6525.897500000001,24.234375,5.369375,7.494375,21.347500000000004,8.669374999999999,33.1375,89,3830,245,117,149,222,162,267,7,20,16,16,13,13,16,15
1.875,74.4,4.075,2.175,2.225,3.75,2.575,4.275,2.4849547279578355,79.20416655706946,4.870831551183022,2.57390753524675,2.8416544476765644,4.5661800227323495,3.086259872402193,5.392123885817164,75,2976,163,87,89,150,103,171,4.5493749999999995,6229.077499999999,22.224375,5.359375,7.309375,19.2875,8.474375,28.309375,92,3798,240,118,149,213,159,264,7,20,16,16,13,12,15,15
1.9,75.15,4.1,2.275,2.275,3.9,2.525,4.325,2.4899799195977463,79.82668726685331,4.898979485566356,2.6504716561397146,2.876629972728505,4.695742752749559,3.053686296920494,5.4198708471697,76,3006,164,91,91,156,101,173,4.51,6317.54,23.097500000000004,5.524374999999999,7.324375000000001,20.090000000000003,8.374375,28.849375,91,3749,243,118,150,217,160,264,7,20,16,16,13,12,15,15
1.9,74.9,4.025,2.25,2.325,3.875,2.525,4.275,2.4899799195977463,79.51603611850882,4.875961443653959,2.6362852652928135,2.9111853256019273,4.677071733467427,3.053686296920494,5.410637670367514,76,2996,161,90,93,155,101,171,4.51,6316.797500000001,22.724375000000002,5.6275,7.709375,20.374374999999997,8.644375,28.674374999999998,89,3853,248,121,154,226,164,265,7,21,16,17,14,13,16,15
1.85,75.725,4.125,2.225,2.325,3.775,2.475,4.35,2.449489742783178,80.02796386263992,4.997499374687305,2.602883016964074,2.9111853256019273,4.612483062299525,3.020761493398643,5.5,74,3029,165,89,93,151,99,174,4.4375,6404.474375,23.219375000000003,5.509375,7.709375,20.119374999999998,8.524375000000001,29.04,89,3721,242,120,157,214,163,255,8,20,15,17,15,12,16,14
1.875,73.85,3.95,2.225,2.375,3.575,2.475,4.075,2.4545875417267156,77.90282408231424,4.764451699828638,2.602883016964074,2.9283100928692645,4.3903302837030385,3.020761493398643,5.111262075065218,75,2954,158,89,95,143,99,163,4.399374999999999,6049.047499999999,21.3775,5.509375,7.719375000000001,17.519374999999997,8.524375000000001,25.444375,88,3666,237,122,156,204,163,247,8,20,15,17,15,11,16,13
1.9,74.35,4.0,2.3,2.375,3.65,2.55,4.1,2.4698178070456938,78.26142089177783,4.774934554525329,2.6739483914241875,2.9283100928692645,4.466542286825459,3.082207001484488,5.118593556827891,76,2974,160,92,95,146,102,164,4.5375,6100.347500000001,21.59,5.71,7.719374999999999,17.990000000000002,8.7775,25.560000000000002,91,3630,238,125,153,209,168,251,9,20,15,18,15,11,17,13
1.9,73.3,4.025,2.3,2.275,3.725,2.65,4.15,2.4698178070456938,77.24862458322478,4.798437245604031,2.6739483914241875,2.8240042492885875,4.541475531146237,3.146426544510455,5.138093031466052,76,2932,161,92,91,149,106,166,4.41,5952.140000000001,22.259375,5.71,7.294375,18.449374999999996,8.997499999999999,25.8375,94,3584,232,125,150,207,165,251,10,20,14,18,15,11,17,13
1.95,72.85,3.975,2.3,2.3,3.675,2.65,4.2,2.5099800796022267,77.07950440940834,4.756574397610112,2.6739483914241875,2.8372521918222215,4.497221364353772,3.146426544510455,5.167204273105526,78,2914,159,92,92,147,106,168,4.339999999999999,5935.2474999999995,21.769375,5.71,7.327500000000001,18.194375,8.9975,26.21,91,3493,223,121,145,198,158,243,9,20,13,17,14,10,16,12
1.95,70.875,3.925,2.275,2.225,3.6,2.525,4.2,2.5099800796022267,74.80391032559729,4.703721930556695,2.6504716561397146,2.7431733448690405,4.404543109109048,3.0454884665682123,5.167204273105526,78,2835,157,91,89,144,101,168,4.339999999999999,5576.0443749999995,21.359375,5.524374999999999,6.6693750000000005,17.15,8.119375,26.21,89,3352,224,120,145,198,156,247,9,19,14,17,15,11,16,13
2.0,70.5,3.95,2.25,2.25,3.65,2.575,4.25,2.5495097567963922,74.63075773432828,4.706378650300037,2.6362852652928135,2.756809750418044,4.415880433163924,3.0618621784789726,5.176871642217914,80,2820,158,90,90,146,103,170,4.3975,5553.3475,21.427500000000002,5.51,6.790000000000001,17.0975,8.324375,26.2375,89,3377,229,120,142,201,155,247,9,20,14,18,15,12,16,13
1.95,70.15,3.975,2.15,2.325,3.7,2.625,4.15,2.5298221281347035,74.23105818995172,4.709033871188442,2.5199206336708304,2.850438562747845,4.460941604639093,3.1264996401726965,5.118593556827891,78,2806,159,86,93,148,105,166,4.4399999999999995,5496.56,21.494374999999998,5.140000000000001,7.174375,17.340000000000003,8.619375,25.4775,91,3366,223,120,147,200,161,250,9,20,14,18,16,12,17,13
1.95,70.425,3.875,2.05,2.275,3.55,2.6,4.1,2.5298221281347035,74.36245692552123,4.623310502226732,2.3979157616563596,2.797320146139873,4.324349662087931,3.0983866769659336,5.079370039680118,78,2817,155,82,91,142,104,164,4.4399999999999995,5526.069375,20.519375,4.75,6.969374999999999,16.5975,8.497499999999999,24.99,91,3336,210,113,144,190,155,237,9,20,13,17,15,11,16,12
1.95,68.45,3.875,2.0,2.25,3.5,2.5,3.975,2.5298221281347035,72.22014954290803,4.623310502226732,2.3769728648009427,2.7838821814150108,4.254409477236529,3.03315017762062,4.89131884055824,78,2738,155,80,90,140,100,159,4.4399999999999995,5200.54,20.519374999999997,4.5475,6.847499999999999,15.85,7.8775,23.324375,91,3173,213,111,147,187,155,239,9,19,14,16,15,11,16,13
1.925,68.175,3.875,2.025,2.25,3.525,2.55,3.9,2.5248762345905194,72.06958443060428,4.623310502226732,2.39269722280108,2.7838821814150108,4.2690748412273125,3.0659419433511785,4.852834223420372,77,2727,155,81,90,141,102,156,4.484375,5180.884375,20.519375000000004,4.774375,6.647499999999999,15.899375000000001,8.190000000000001,23.060000000000002,93,3207,219,113,147,192,155,236,9,20,14,16,15,12,16,12
1.925,67.725,3.9,2.05,2.3,3.525,2.5,3.85,2.5248762345905194,71.5934703726534,4.626013402488151,2.4083189157584592,2.819574435974337,4.2690748412273125,3.0495901363953815,4.832183771339828,77,2709,156,82,92,141,100,154,4.484375,5115.5443749999995,20.590000000000003,4.8,6.74,15.899375000000001,8.1975,22.7875,93,3184,215,117,146,192,156,235,9,20,14,17,15,12,16,12
1.925,67.575,3.8,2.125,2.3,3.525,2.45,3.725,2.5248762345905194,71.5389753910412,4.538722287164087,2.4849547279578355,2.819574435974337,4.2690748412273125,3.0,4.740780526453424,77,2703,152,85,92,141,98,149,4.484375,5114.309375,19.6,5.019375,6.74,15.899374999999997,8.0,21.619374999999998,92,3132,201,113,140,183,151,223,9,20,13,16,14,11,15,11
1.875,65.675,3.775,2.025,2.25,3.375,2.4,3.65,2.4647515087732477,69.51852271157667,4.491658936295141,2.361143790623519,2.7838821814150108,4.089621009335707,2.9664793948382653,4.636809247747852,75,2627,151,81,90,135,96,146,4.319374999999999,4818.574375,19.224375000000002,4.194374999999999,6.4275,13.919374999999999,7.590000000000001,20.7775,88,2990,206,112,142,177,147,219,9,19,14,16,15,10,14,11
1.875,65.3,3.7,2.1,2.275,3.35,2.375,3.7,2.4647515087732477,69.32676250914938,4.449719092257398,2.4392621835300936,2.797320146139873,4.0743097574926725,2.9538110975483858,4.6475800154489,75,2612,148,84,91,134,95,148,4.319375,4794.64,19.0775,4.3875,6.324374999999999,13.877500000000001,7.569375000000001,20.79,87,3017,208,116,143,177,144,220,9,20,14,17,15,10,14,11
1.825,63.975,3.625,2.225,2.25,3.3,2.375,3.725,2.4238399287081647,68.2771923851589,4.424364361125788,2.564176280991617,2.792848008753788,4.0,2.9538110975483858,4.661008474568567,73,2559,145,89,90,132,95,149,4.249375,4657.469375000001,18.719375,4.684375,6.36,13.439999999999998,7.569374999999999,20.674375,86,2972,208,114,140,179,141,220,9,20,14,17,15,10,13,11
1.825,63.475,3.55,2.15,2.25,3.175,2.3,3.675,2.4238399287081647,68.0865258329429,4.381780460041329,2.5199206336708304,2.792848008753788,3.8890872965260113,2.8896366553599777,4.639504283864818,73,2539,142,86,90,127,92,147,4.249375,4635.1743750000005,18.2,4.659999999999999,6.36,12.949375,7.447500000000001,20.259375,85,2868,198,115,138,172,133,211,9,20,13,16,14,9,12,10
1.85,61.125,3.575,2.2,2.225,3.1,2.25,3.625,2.4289915602982237,65.80482505105533,4.424364361125788,2.5592967784139455,2.779388421937459,3.82099463490856,2.8372521918222215,4.563441683641854,74,2445,143,88,89,124,90,145,4.3375,4320.509375,18.524375,4.590000000000001,6.224375,12.1975,7.05,19.669375000000002,86,2718,201,115,141,168,129,207,10,19,14,15,14,8,11,9
1.95,60.8,3.575,2.225,2.25,3.175,2.275,3.625,2.5495097567963922,65.63916513789614,4.424364361125788,2.583602136552763,2.80178514522438,3.8890872965260113,2.850438562747845,4.563441683641854,78,2432,143,89,90,127,91,145,4.6775,4300.660000000001,18.624375000000004,4.644375,6.2875,12.484375,7.074375000000001,19.669375000000002,89,2656,207,115,142,171,132,212,10,19,15,15,15,9,12,10
1.9,60.3,3.625,2.225,2.375,3.15,2.3,3.6,2.5298221281347035,65.20352751193758,4.458138625031752,2.583602136552763,2.9538110975483858,3.8794329482541645,2.8548204847240397,4.54972526643093,76,2412,145,89,95,126,92,144,4.4399999999999995,4219.5775,19.019375,4.644374999999999,6.694374999999999,12.16,7.15,19.49,89,2660,202,115,144,174,132,203,9,19,14,15,15,9,12,9
1.85,60.025,3.5,2.2,2.475,3.15,2.3,3.45,2.4899799195977463,65.01134516374815,4.358898943540674,2.5592967784139455,3.020761493398643,3.8794329482541645,2.8548204847240397,4.415880433163924,74,2401,140,88,99,126,92,138,4.3775,4191.369375,18.4375,4.59,6.799375,11.9875,7.15,18.597500000000004,88,2620,201,112,146,172,133,201,9,19,14,15,15,9,13,9
1.925,58.55,3.625,2.25,2.525,3.175,2.35,3.525,2.564176280991617,63.94763482725534,4.4860896112315904,2.5787593916455256,3.037268509697488,3.8890872965260113,2.8722813232690143,4.474930167052889,77,2342,145,90,101,127,94,141,4.5443750000000005,4076.34,19.359375,4.547500000000001,7.049375,12.319374999999999,7.147499999999999,18.974375000000002,90,2616,200,109,145,168,126,196,9,19,14,15,16,9,13,8
2.0,56.8,3.45,2.2,2.375,3.0,2.275,3.375,2.6076809620810595,62.058843044323666,4.347413023856832,2.539685019840059,2.832843094843059,3.681032463861192,2.6972207918522355,4.338778629983327,80,2272,138,88,95,120,91,135,4.977500000000001,3847.8775,17.797500000000003,4.49,6.269375,11.3,6.324375,17.324374999999996,96,2488,204,107,140,163,119,198,10,19,14,15,15,9,12,8
2.1,57.05,3.375,2.25,2.375,3.125,2.275,3.35,2.7202941017470885,62.38028534721527,4.3040678433314685,2.5592967784139455,2.832843094843059,3.76497011940334,2.6972207918522355,4.312771730569565,84,2282,135,90,95,125,91,134,5.15,3857.0774999999994,17.259375,4.4475,6.134375,11.534375,6.119375,17.0375,98,2539,197,104,136,167,117,191,10,19,13,15,14,9,11,7
2.0,56.5,3.325,2.15,2.4,3.15,2.2,3.2,2.6076809620810595,61.82232606429493,4.2690748412273125,2.479919353527449,2.8635642126552705,3.7682887362833544,2.6551836094703507,4.171330722922842,80,2260,133,86,96,126,88,128,4.84,3781.04,17.274375,4.327499999999999,6.24,11.4775,6.05,16.189999999999998,101,2536,198,104,132,166,117,189,10,19,13,15,13,9,11,7
1.925,55.425,3.325,2.125,2.45,3.125,2.225,3.375,2.534758371127315,61.04363193650915,4.2690748412273125,2.4647515087732477,2.949576240750525,3.7383151285037486,2.669269563007828,4.315669125408017,77,2217,133,85,98,125,89,135,4.7993749999999995,3708.8943750000008,17.274375,4.449375,6.8775,11.944374999999999,6.269374999999999,16.999374999999997,100,2543,197,104,134,170,117,191,11,19,13,15,13,9,11,7
1.975,54.15,3.25,2.05,2.4,3.05,2.2,3.3,2.57390753524675,59.723948295470215,4.242640687119285,2.4186773244895647,2.898275349237888,3.646916505762094,2.6457513110645907,4.272001872658765,79,2166,130,82,96,122,88,132,4.869375,3558.5399999999995,16.8975,4.410000000000001,6.709999999999999,11.4775,6.19,16.29,104,2421,199,98,137,172,113,195,12,19,13,14,13,10,11,7
2.025,53.75,3.25,2.025,2.425,3.175,2.15,3.275,2.6124700955226263,59.14516041063715,4.242640687119285,2.382225849914319,2.9111853256019273,3.76497011940334,2.569046515733026,4.263214749458442,81,2150,130,81,97,127,86,131,4.934375,3446.31,16.8975,3.784375,6.584375,11.999375,5.39,16.144375,99,2438,189,94,131,171,108,186,12,19,12,13,12,10,10,6
1.9,53.35,3.025,2.05,2.425,3.1,2.15,3.1,2.4392621835300936,58.724356105452536,3.940177660969109,2.4186773244895647,2.9111853256019273,3.7349698793966195,2.569046515733026,4.031128874149275,76,2134,121,82,97,124,86,124,4.3875,3390.79,14.844375,3.8900000000000006,6.584375,11.547500000000001,5.390000000000001,14.9275,98,2429,185,92,130,169,109,180,12,19,12,13,12,9,10,6
1.85,51.85,3.125,2.05,2.45,3.025,2.125,3.2,2.3979157616563596,57.66758188098405,4.089621009335707,2.4186773244895647,2.924038303442689,3.664014192112252,2.55440795488896,4.129164564412516,74,2074,125,82,98,121,85,128,4.4275,3294.7475000000004,15.869375,3.8899999999999997,6.859999999999999,11.534375,5.474375,15.4875,97,2457,183,94,134,170,108,182,13,19,11,13,13,9,10,6
1.875,50.525,3.0,2.05,2.425,2.95,2.05,3.125,2.4031229681395834,56.28387868652977,4.012480529547776,2.4186773244895647,2.8939592256975564,3.570714214271425,2.449489742783178,4.083503397819084,75,2021,120,82,97,118,82,125,4.394375,3150.024375,14.997499999999999,3.8900000000000006,6.749375000000001,11.059999999999999,5.2775,14.919375000000002,99,2321,187,92,135,165,102,188,14,19,11,12,14,8,9,7
1.875,49.05,3.0,2.05,2.425,2.85,2.025,3.075,2.4031229681395834,54.56738952891186,4.012480529547776,2.4186773244895647,2.8939592256975564,3.5142566781611158,2.434132288927617,4.058940748520481,75,1962,120,82,97,114,81,123,4.394375,2945.1099999999997,14.89,3.6,6.749375000000001,10.39,5.159375,14.444374999999999,94,2363,182,87,135,164,100,176,14,20,10,11,14,8,9,6
1.9,48.05,3.075,2.1,2.45,3.0,2.175,3.025,2.4698178070456938,53.68053650998656,4.132190702278877,2.5,2.924038303442689,3.640054944640259,2.669269563007828,3.933827652554189,76,1922,123,84,98,120,87,121,4.660000000000001,2836.71,15.694374999999999,3.847500000000001,6.859999999999999,10.8475,6.074375000000001,13.584375,99,2227,189,89,133,168,108,176,14,19,10,11,13,8,10,6
1.875,49.0,2.95,2.075,2.425,3.025,2.275,2.975,2.434132288927617,55.319074468034984,4.05585995813465,2.4849547279578355,2.9025850547399985,3.6571847095819483,2.779388421937459,3.908324449172561,75,1960,118,83,97,121,91,119,4.874375,3001.6775,15.3475,3.8493749999999998,6.669375,10.894375,6.459375,13.649374999999997,103,2355,192,92,133,166,106,181,14,20,10,11,13,8,10,7
1.875,48.45,3.075,2.05,2.475,2.975,2.225,3.125,2.434132288927617,54.54814387309618,4.132190702278877,2.479919353527449,2.9706901555025893,3.5742132001323035,2.7064737205448717,4.095729483254479,75,1938,123,82,99,119,89,125,4.659375,2925.09,16.219375000000003,3.9,6.934375,10.449375,6.1693750000000005,15.509375,108,2219,194,89,137,157,101,188,15,19,10,10,14,7,9,7
1.85,48.95,3.05,2.025,2.55,2.975,2.225,3.175,2.4186773244895647,55.502252206554644,4.11703777004778,2.4545875417267156,3.0083217912982647,3.5742132001323035,2.7064737205448717,4.132190702278877,74,1958,122,81,102,119,89,127,4.527500000000001,3036.9399999999996,16.047500000000003,3.384375,7.359999999999999,10.449375,6.1693750000000005,15.449374999999998,106,2374,188,85,144,162,100,188,15,20,9,9,15,8,9,7
1.9,48.675,3.1,2.075,2.6,3.0,2.275,3.225,2.5,55.18672847705325,4.201190307520001,2.534758371127315,3.0413812651491097,3.5777087639996634,2.797320146139873,4.263214749458442,76,1947,124,83,104,120,91,129,4.8100000000000005,2998.309375,16.65,3.6193749999999993,7.4275,10.3975,6.559375,16.419375,109,2285,197,87,149,167,106,186,16,19,10,9,16,8,10,7
1.925,49.225,2.975,2.05,2.625,3.1,2.25,3.25,2.5049950099750697,56.05689074502795,4.126136207155551,2.5199206336708304,3.0454884665682123,3.63318042491699,2.7838821814150108,4.266145801540309,77,1969,119,82,105,124,90,130,4.774375,3087.2443749999998,16.259375,3.7900000000000005,7.519374999999999,10.477500000000001,6.540000000000001,16.3775,112,2438,194,91,150,163,110,193,16,20,9,10,17,8,10,7
1.9,48.85,2.85,2.05,2.575,3.05,2.325,3.3,2.5,55.563027275338406,4.018706259482023,2.5199206336708304,3.0124740662784135,3.5496478698597698,2.850438562747845,4.324349662087931,76,1954,114,82,103,122,93,132,4.8100000000000005,3037.5474999999997,15.15,3.7900000000000005,7.449375000000001,10.040000000000001,6.744375,17.01,110,2296,189,91,146,154,109,196,15,19,9,10,16,7,9,8
1.9,49.375,2.875,2.025,2.575,3.1,2.3,3.325,2.5,56.54179869795442,4.021815510438041,2.5149552679918585,3.0124740662784135,3.605551275463989,2.8284271247461903,4.327239304683761,76,1975,115,81,103,124,92,133,4.56,3154.399375,15.124375,3.684375,7.449375000000001,10.5975,6.56,16.969375000000003,109,2449,183,91,144,162,111,195,14,20,9,9,16,8,9,9
1.975,49.1,2.9,2.05,2.625,3.1,2.375,3.35,2.57390753524675,56.24677768548168,4.0743097574926725,2.5495097567963922,3.078148794324277,3.605551275463989,2.8939592256975564,4.376071297408213,79,1964,116,82,105,124,95,134,4.734375,3117.46,15.497500000000002,3.7775000000000007,7.719374999999999,10.5975,6.749375000000001,17.327499999999997,111,2391,186,91,151,164,114,197,14,19,9,8,17,8,10,9
1.975,50.55,2.875,2.1,2.6,3.15,2.35,3.325,2.57390753524675,58.29751281143991,4.058940748520481,2.588435821108957,3.0659419433511785,3.63318042491699,2.8809720581775866,4.367493560384491,79,2022,115,84,104,126,94,133,4.734375,3330.5375,15.424375000000001,3.6375,7.709999999999999,10.64,6.477500000000001,17.449374999999996,111,2542,188,87,155,163,111,203,13,20,9,7,17,8,9,10
1.925,50.65,2.9,2.075,2.6,3.125,2.3,3.375,2.55440795488896,58.41403940834771,4.0743097574926725,2.55440795488896,3.0659419433511785,3.59513560244951,2.8284271247461903,4.401704215414752,77,2026,116,83,104,125,92,135,4.494375,3342.4775,15.6,3.5493750000000004,7.709999999999999,10.444374999999999,6.31,17.874374999999997,109,2570,190,86,155,165,112,205,12,20,9,7,17,8,9,10
1.95,52.2,2.8,2.05,2.6,3.05,2.275,3.375,2.569046515733026,60.62755149270008,4.0,2.5298221281347035,3.0659419433511785,3.5,2.797320146139873,4.401704215414752,78,2088,112,82,104,122,91,135,4.777500000000001,3658.8900000000003,14.677499999999998,3.8400000000000007,7.8375,10.427499999999998,6.559375,17.484375,109,2682,192,90,157,170,116,211,12,20,9,8,17,9,10,11
1.95,52.975,2.925,2.1,2.625,3.025,2.275,3.5,2.569046515733026,61.07966109925627,4.168333000133266,2.588435821108957,3.086259872402193,3.48209706929603,2.797320146139873,4.58257569495584,78,2119,117,84,105,121,91,140,4.7775,3719.669375,15.344375000000003,3.9775000000000005,7.899375000000001,10.624374999999999,6.559375,18.110000000000003,113,2719,192,92,157,164,119,206,13,20,8,8,17,8,11,10
1.875,54.475,2.85,2.1,2.575,3.025,2.3,3.375,2.4949949899749297,62.966062287552965,4.123105625617661,2.588435821108957,3.07001628660175,3.48209706929603,2.80178514522438,4.458138625031752,75,2179,114,84,103,121,92,135,4.724375,3912.524375,15.1775,3.6375,7.669375,10.094375,6.527500000000001,17.699375,116,2803,194,91,160,164,119,212,14,20,8,7,17,8,11,11
1.825,55.475,2.875,2.125,2.6,3.075,2.325,3.45,2.4545875417267156,63.70812350085348,4.132190702278877,2.602883016964074,3.0903074280724887,3.5249113464029134,2.8240042492885875,4.516635916254486,73,2219,115,85,104,123,93,138,4.759375,3991.074375,15.319374999999999,3.6243749999999997,7.4475,10.249374999999999,6.349375,18.71,113,2793,197,91,156,161,114,212,14,20,8,7,16,8,10,11
1.9,56.35,2.95,2.1,2.5,2.975,2.275,3.475,2.5,65.00653813271401,4.177319714841085,2.598076211353316,2.9916550603303182,3.4387497728098797,2.752271788904577,4.524930938699507,76,2254,118,84,100,119,91,139,4.81,4213.9475,15.347500000000002,3.6875,7.1275,10.069374999999999,6.4193750000000005,18.584375,116,2854,202,93,155,162,118,217,15,20,9,7,16,8,11,12
2.025,56.5,3.2,2.175,2.55,2.975,2.225,3.65,2.669269563007828,65.10798722123116,4.577116996538323,2.669269563007828,3.0413812651491097,3.4387497728098797,2.715695122800054,4.769696007084728,81,2260,128,87,102,119,89,146,5.369375,4228.16,17.71,3.794375,7.290000000000001,10.069374999999999,6.324375000000001,19.860000000000003,118,2919,200,96,155,158,119,217,15,20,8,7,16,7,12,11
2.025,58.25,3.025,2.175,2.55,2.975,2.25,3.6,2.669269563007828,67.09359134820554,4.401704215414752,2.669269563007828,3.0413812651491097,3.4387497728098797,2.7202941017470885,4.727578661429125,81,2330,121,87,102,119,90,144,5.624375,4451.847499999999,16.894375000000004,3.794375000000001,7.290000000000001,9.344375,6.4,20.1,124,3002,206,98,157,154,118,226,16,20,9,7,17,6,12,12
2.175,59.05,3.15,2.2,2.625,3.05,2.275,3.65,2.832843094843059,67.6871479676903,4.5,2.692582403567252,3.1264996401726965,3.5355339059327378,2.752271788904577,4.748684028233506,87,2362,126,88,105,122,91,146,6.134375,4519.9275,18.29,3.4475000000000002,7.599374999999999,9.7775,6.194375,20.590000000000003,131,3013,209,97,162,153,120,224,17,20,9,6,18,6,13,12
2.15,60.35,3.2,2.175,2.575,3.075,2.325,3.625,2.8284271247461903,69.45034197180026,4.522167621838006,2.6786190471957747,3.09434968935316,3.5742132001323035,2.7703790354390136,4.746050990033714,86,2414,128,87,103,123,93,145,6.1775,4813.11,18.2,3.659375,7.684375,10.884375,6.409375,20.494375,136,3108,217,99,168,163,124,225,17,20,10,7,19,7,14,12
2.2,60.9,3.3,2.125,2.6,3.025,2.3,3.9,2.8809720581775866,69.71907916775723,4.6097722286464435,2.622022120425379,3.122498999199199,3.546124645299429,2.756809750418044,5.10881590977792,88,2436,132,85,104,121,92,156,6.34,4853.727499999999,18.36,3.544375,7.790000000000001,10.949375,6.390000000000001,23.21,140,3168,210,97,169,163,126,233,17,20,9,7,19,7,14,12
2.25,62.75,3.1,2.125,2.6,3.1,2.275,3.8,2.932575659723036,71.65577436606209,4.4328320518603,2.622022120425379,3.122498999199199,3.6193922141707713,2.752271788904577,5.049752469181039,90,2510,124,85,104,124,91,152,6.4975,5094.2275,17.4,3.359375,7.647500000000001,10.997499999999999,6.419375,23.097499999999997,138,3259,207,93,169,165,127,243,17,20,8,6,19,8,14,13
2.325,63.75,3.175,2.075,2.625,3.225,2.425,3.925,2.9706901555025893,72.32254143764584,4.474930167052889,2.564176280991617,3.142451272494134,3.771604433129222,2.962262648719725,5.1599418601375735,93,2550,127,83,105,129,97,157,6.499375000000001,5176.527499999999,17.994374999999998,3.2443750000000002,7.699375000000001,11.744375,7.274375000000001,24.869374999999998,138,3302,210,93,169,164,132,248,17,20,8,6,19,8,14,13
2.3,66.05,3.175,2.025,2.65,3.225,2.475,3.925,2.9664793948382653,74.63879688205056,4.474930167052889,2.4849547279578355,3.146426544510455,3.771604433129222,2.9958304357890486,5.1599418601375735,92,2642,127,81,106,129,99,157,6.55,5557.6275,17.994375,3.534375,7.797500000000001,12.469375,7.594375000000001,24.869375,141,3446,213,93,167,172,142,256,17,20,8,7,20,9,15,14
2.35,66.75,3.275,2.1,2.65,3.25,2.55,4.1,3.0,74.91962359755954,4.541475531146237,2.5298221281347035,3.146426544510455,3.7815340802378077,3.057776970284131,5.310367218940701,94,2670,131,84,106,130,102,164,6.597499999999999,5604.2474999999995,18.144375,3.5100000000000002,7.797500000000001,12.7375,7.659999999999999,25.95,142,3520,209,96,167,172,148,256,16,20,7,8,20,9,16,14
2.35,69.2,3.075,2.025,2.725,3.325,2.55,4.0,3.0,77.07950440940834,4.361765697512878,2.4849547279578355,3.2054640849649214,3.850324661635691,3.057776970284131,5.2345009313209605,94,2768,123,81,109,133,102,160,6.44,5901.56,17.134375,3.534375,7.794375,12.794375,7.389999999999999,25.71,138,3635,205,99,165,172,146,259,15,20,6,8,19,9,15,14
2.225,70.1,3.1,1.95,2.7,3.325,2.625,4.075,2.8939592256975564,77.60315715227055,4.370354676682432,2.4392621835300936,3.1859064644147983,3.850324661635691,3.142451272494134,5.2701992372205435,89,2804,124,78,108,133,105,163,6.199375000000001,5970.41,17.2775,3.5475000000000003,7.7475,12.794374999999999,7.699375000000001,26.274375,134,3668,204,98,164,168,146,260,15,20,6,8,19,9,15,14
2.275,72.0,3.075,1.9,2.55,3.475,2.675,4.15,2.9111853256019273,79.65707752610561,4.350287346831241,2.4186773244895647,3.0413812651491097,4.003123780249619,3.1741140496207754,5.319774431308154,91,2880,123,76,102,139,107,166,6.149375,6336.5475,16.599375000000002,3.6,7.290000000000001,14.524375000000001,8.044374999999999,26.339999999999996,135,3767,206,98,164,180,150,266,15,20,6,8,19,10,15,15
2.35,72.1,3.3,1.9,2.55,3.55,2.65,4.35,2.9748949561287032,79.70978609932409,4.626013402488151,2.4186773244895647,3.0413812651491097,4.049691346263317,3.1543620591175006,5.504543577809154,94,2884,132,76,102,142,106,174,6.289999999999999,6345.5275,18.160000000000004,3.6,7.290000000000001,14.710000000000003,7.99,27.74,134,3823,205,100,162,188,154,266,15,20,5,8,18,11,16,15
2.275,74.5,3.175,1.975,2.525,3.625,2.675,4.275,2.9111853256019273,81.64343206896682,4.50277692096777,2.5248762345905194,3.029026246172192,4.1140004861448425,3.1741140496207754,5.45664732230332,91,2980,127,79,101,145,107,171,6.149375000000001,6628.44,17.469374999999996,3.894375,7.144374999999999,14.749374999999997,8.044374999999999,27.744375,130,3930,206,102,164,186,152,273,14,20,5,8,19,11,16,16
2.225,75.25,3.25,2.0,2.55,3.75,2.675,4.275,2.876629972728505,82.08318950918026,4.527692569068709,2.539685019840059,3.0413812651491097,4.219004621945797,3.1741140496207754,5.45664732230332,89,3010,130,80,102,150,107,171,5.634375,6690.727499999999,17.940000000000005,3.8899999999999997,7.147499999999999,15.239999999999998,8.044374999999999,27.884375,122,3928,210,104,167,183,151,269,13,20,5,8,19,11,16,16
2.175,76.15,3.3,2.025,2.525,3.75,2.625,4.275,2.806243040080456,83.20486764606984,4.54972526643093,2.564176280991617,3.037268509697488,4.219004621945797,3.158322339470751,5.45664732230332,87,3046,132,81,101,150,105,171,5.394375,6920.160000000001,17.81,4.399374999999999,7.194374999999999,15.977499999999997,8.084375,27.294375000000002,120,3975,215,107,166,190,154,269,13,20,6,9,19,12,16,16
2.2,75.925,3.475,2.1,2.525,3.825,2.725,4.475,2.819574435974337,83.0763203325713,4.756574397610112,2.6076809620810595,3.037268509697488,4.263214749458442,3.2210246816812815,5.636931789546508,88,3037,139,84,101,153,109,179,5.389999999999999,6897.969375000001,18.724375000000002,4.397499999999999,7.194374999999999,16.144375000000004,8.199375,28.624374999999997,119,4024,215,112,160,194,156,268,12,20,5,10,18,13,16,16
2.225,78.2,3.425,2.125,2.4,3.875,2.75,4.325,2.832843094843059,84.93144294076252,4.72493386197098,2.622022120425379,2.8896366553599777,4.32145808726638,3.24037034920393,5.529466520379701,89,3128,137,85,96,155,110,173,5.544375,7184.727499999999,18.994375,4.234375,5.9475,15.869375,7.9399999999999995,28.094375000000003,119,4121,222,112,157,189,153,272,12,20,6,10,18,12,15,17
2.175,78.8,3.55,2.15,2.425,3.875,2.725,4.425,2.797320146139873,85.27690191370696,4.790615826801393,2.6267851073127395,2.9111853256019273,4.32145808726638,3.228776858192588,5.583457710057451,87,3152,142,86,97,155,109,177,5.649375000000001,7236.7474999999995,20.060000000000002,4.1775,5.994375,15.869375000000002,7.944374999999999,29.144375000000004,120,4133,224,110,161,189,154,274,12,20,6,10,19,12,15,17
2.125,79.7,3.625,2.075,2.475,3.825,2.675,4.55,2.7613402542968153,86.28412368448787,4.8295962564173,2.583602136552763,2.962262648719725,4.263214749458442,3.1976553910638965,5.661271941887264,85,3188,145,83,99,153,107,182,5.594374999999999,7443.6275,19.994375,4.194375,6.134375,16.144375,7.899375000000001,29.49,120,4176,231,110,159,190,152,284,13,20,7,10,19,13,15,18
2.2,79.475,3.8,2.025,2.45,3.85,2.725,4.725,2.8284271247461903,86.15494762345341,4.9899899799498595,2.5248762345905194,2.924038303442689,4.266145801540309,3.228776858192588,5.828807768317635,88,3179,152,81,98,154,109,189,5.75,7420.784375,20.9,4.049375,5.99,16.097500000000004,7.944374999999999,30.459375,121,4202,228,108,152,193,152,279,12,20,7,10,18,13,15,17
2.2,82.175,3.6,2.075,2.525,3.925,2.8,4.675,2.8284271247461903,88.16844673691376,4.8270073544588685,2.544602129999894,3.0124740662784135,4.327239304683761,3.286335345030997,5.7857583772570385,88,3287,144,83,101,157,112,187,5.597499999999999,7752.284375,20.060000000000002,3.9943749999999993,5.924375,16.084375,7.910000000000001,30.834375,122,4322,228,106,148,192,152,285,11,20,7,10,17,13,15,17
2.2,82.825,3.75,2.125,2.55,3.975,2.85,4.775,2.8284271247461903,88.50692063336065,4.919349550499537,2.602883016964074,3.0413812651491097,4.373213921133975,3.331666249791536,5.837379549078507,88,3313,150,85,102,159,114,191,5.597499999999999,7805.649374999999,21.4775,4.134375,6.01,16.319375,7.6775,31.749374999999997,121,4314,233,108,146,189,151,284,11,19,7,10,17,13,15,17
2.275,84.9,3.85,2.1,2.55,4.075,2.875,4.825,2.8679260799399975,90.28261183638851,4.979959839195493,2.588435821108957,3.0413812651491097,4.41871021905714,3.342902930089356,5.854485459884583,91,3396,154,84,102,163,115,193,6.049375,8140.710000000001,21.7375,4.14,6.01,17.044375,7.469374999999999,31.794375000000002,118,4484,237,108,146,192,145,284,12,20,8,10,17,14,14,18
2.25,85.225,3.9,2.075,2.55,3.925,2.775,4.75,2.8106938645110393,90.40671988298215,5.06951674225463,2.544602129999894,3.0413812651491097,4.315669125408017,3.1898275815473163,5.757603668193912,90,3409,156,83,102,157,111,190,5.7975,8165.109375,22.46,3.9943750000000002,6.01,16.594375000000003,6.844374999999999,30.9,117,4420,234,107,144,193,144,277,12,19,8,10,16,14,14,17
2.3,85.2,3.925,2.1,2.525,4.025,2.7,4.75,2.8809720581775866,90.37560511553988,5.071981861166304,2.5592967784139455,3.029026246172192,4.430011286667337,3.1064449134018135,5.757603668193912,92,3408,157,84,101,161,108,190,5.5775,8159.6275,22.574374999999996,3.9899999999999998,5.659375,17.299375,6.5875,30.9,113,4526,240,108,140,198,143,277,11,20,9,10,15,14,14,18
2.275,85.025,3.875,2.15,2.45,4.025,2.675,4.625,2.8679260799399975,90.25450127278971,5.032395056034453,2.5787593916455256,2.9410882339705484,4.430011286667337,3.086259872402193,5.636931789546508,91,3401,155,86,98,161,107,185,5.584375,8138.719375000001,21.994375,3.9274999999999998,5.41,17.299375,6.549375,29.134375,114,4398,239,106,133,191,138,267,10,19,9,10,14,13,13,17
2.25,84.9,3.95,2.125,2.425,4.05,2.675,4.625,2.8635642126552705,90.09855714715968,5.084289527554465,2.564176280991617,2.9197602641312868,4.455333881989093,3.086259872402193,5.636931789546508,90,3396,158,85,97,162,107,185,5.4775,8109.910000000001,21.85,4.094375,4.819375,17.6,6.549375,29.134375,109,4510,237,106,127,196,134,266,9,20,9,11,13,14,13,18
2.2,84.55,3.975,2.15,2.425,4.1,2.6,4.5,2.792848008753788,89.90022246913519,5.125914552545721,2.6172504656604803,2.9197602641312868,4.4777226354476225,2.9748949561287032,5.422176684690384,88,3382,159,86,97,164,104,180,5.24,8072.1275,22.174375,4.290000000000001,4.819375,17.6475,6.1275,27.15,108,4419,233,107,124,201,134,258,9,19,9,11,12,15,14,18
2.2,84.975,3.975,2.175,2.525,4.1,2.625,4.475,2.792848008753788,90.4069964106761,5.125914552545721,2.6315394733881536,3.020761493398643,4.4777226354476225,2.987473849257931,5.4198708471697,88,3399,159,87,101,164,105,179,5.24,8160.644374999999,22.174375,4.119375,4.819375,17.6475,6.119375000000001,27.199374999999996,109,4546,241,106,124,201,132,258,9,20,9,10,12,15,14,17
2.225,84.675,4.05,2.1,2.575,4.1,2.625,4.375,2.797320146139873,90.20767705688912,5.162363799656123,2.5592967784139455,3.053686296920494,4.4777226354476225,2.987473849257931,5.3455589043616385,89,3387,162,84,103,164,105,175,5.344375,8126.699374999999,22.847500000000004,4.147499999999999,4.809375,17.6475,6.119375,26.094375000000003,109,4427,243,105,122,192,128,253,10,19,9,11,11,14,13,16
2.2,84.525,4.075,2.175,2.55,4.025,2.6,4.45,2.7838821814150108,90.0212474919116,5.169622810225133,2.602883016964074,3.03315017762062,4.41871021905714,2.9748949561287032,5.380520420925842,88,3381,163,87,102,161,104,178,5.5,8092.094375000001,22.824374999999996,4.134375,4.577500000000001,16.884375,5.7875,26.2275,107,4530,241,105,119,195,125,251,10,20,10,12,11,15,12,17
2.2,84.35,4.075,2.2,2.55,4.05,2.575,4.425,2.7838821814150108,89.92107650601164,5.169622810225133,2.6457513110645907,3.03315017762062,4.427188724235731,2.9453352950046283,5.340880077290633,88,3374,163,88,102,162,103,177,5.5,8072.839999999999,22.824375,4.277500000000001,4.577500000000001,16.709999999999997,5.699375,25.884375,109,4426,241,106,122,195,124,245,11,19,10,12,12,15,12,16
2.225,84.25,4.075,2.2,2.6,4.1,2.6,4.475,2.797320146139873,89.80089086417796,5.169622810225133,2.6457513110645907,3.0659419433511785,4.47213595499958,2.958039891549808,5.3595708783446465,89,3370,163,88,104,164,104,179,5.499375,8051.95,23.209375,4.277500000000001,4.5600000000000005,16.9375,5.6875,26.244375,110,4540,247,108,123,196,124,253,11,20,11,12,12,15,12,17
2.25,82.85,4.075,2.175,2.625,3.975,2.575,4.4,2.80178514522438,89.14370420842967,5.169622810225133,2.622022120425379,3.086259872402193,4.401704215414752,2.9453352950046283,5.324471804789654,90,3314,163,87,105,159,103,176,5.6,7942.19,23.209375,4.234375,4.574374999999999,16.734375,5.869375,25.627499999999998,111,4446,244,104,120,193,122,248,12,19,11,11,12,14,11,16
2.225,81.375,4.05,2.175,2.7,4.0,2.575,4.475,2.7883686987197374,87.7007696659499,5.167204273105526,2.622022120425379,3.146426544510455,4.421538193886829,2.9453352950046283,5.387485498820391,89,3255,162,87,108,160,103,179,5.294375,7650.144375000001,23.2775,3.899375,4.3774999999999995,16.310000000000002,5.344374999999999,26.994375,108,4424,240,98,117,196,120,247,12,19,11,10,11,14,11,16
2.275,83.275,3.925,2.1,2.675,4.1,2.5,4.4,2.8591956910991594,89.60817485028919,5.032395056034453,2.5495097567963922,3.1264996401726965,4.511097427455985,2.9068883707497264,5.282045058497703,91,3331,157,84,107,164,100,176,5.534375,8009.149374999999,22.349375,3.94,4.824374999999999,17.46,5.3875,26.077499999999997,108,4449,236,99,120,200,121,248,11,19,11,11,12,14,11,16
2.275,81.05,3.925,2.075,2.75,4.025,2.475,4.375,2.8591956910991594,88.01732783946579,5.032395056034453,2.534758371127315,3.1622776601683795,4.469339996017309,2.9025850547399985,5.274940757961174,91,3242,157,83,110,161,99,175,5.534375,7741.76,22.519375,3.9443749999999995,5.3774999999999995,17.494375,5.449374999999999,25.794375000000002,114,4554,237,101,118,205,119,250,12,20,11,12,12,14,11,16
2.275,80.125,3.925,2.15,2.7,3.975,2.425,4.3,2.8591956910991594,87.50614264153117,5.032395056034453,2.6362852652928135,3.1304951684997055,4.435651023243375,2.8679260799399975,5.224940191045253,91,3205,157,86,108,159,97,172,5.369375,7655.434375,22.174375,4.2275,5.390000000000001,17.349375000000002,5.419375,24.740000000000002,112,4385,234,103,120,203,114,244,12,19,10,12,13,14,10,15
2.2,79.95,3.9,2.225,2.75,4.1,2.45,4.25,2.819574435974337,87.28688332160795,5.014977567247933,2.6786190471957747,3.1622776601683795,4.533210782657255,2.898275349237888,5.215361924162119,88,3198,156,89,110,164,98,170,5.390000000000001,7572.077499999999,22.59,4.199375,5.3774999999999995,17.660000000000004,4.977500000000001,24.7975,110,4395,231,101,119,205,113,238,12,19,10,12,13,14,9,15
2.075,81.95,3.625,2.15,2.675,4.2,2.475,4.075,2.659887215654077,89.25805285799147,4.644889664997437,2.6076809620810595,3.1024184114977142,4.598912915026768,2.9111853256019273,4.992494366546646,83,3278,145,86,107,168,99,163,4.899375000000001,7943.477499999999,19.819375,4.24,5.319375,18.747500000000002,5.324375000000001,23.034375,103,4471,222,101,116,212,117,228,11,19,9,13,12,15,10,14
2.05,79.95,3.625,2.225,2.65,4.125,2.45,4.05,2.6457513110645907,87.67553820764375,4.644889664997437,2.6504716561397146,3.0983866769659336,4.541475531146237,2.9068883707497264,4.979959839195493,82,3198,145,89,106,165,98,162,4.75,7678.8775,19.684375,4.699375,5.19,18.449374999999996,5.209999999999999,22.55,97,4584,217,100,111,218,114,229,11,20,9,13,11,16,9,14
1.95,79.125,3.5,2.225,2.575,4.025,2.375,4.0,2.4899799195977463,87.20851449256546,4.54972526643093,2.6504716561397146,3.0124740662784135,4.452527372178637,2.8416544476765644,4.959838707054898,78,3165,140,89,103,161,95,160,4.24,7601.224375,18.45,4.699375,4.974375,17.934375,5.099374999999999,22.04,94,4402,210,102,107,206,109,227,12,19,8,13,10,15,8,14
1.95,78.85,3.425,2.3,2.625,4.075,2.375,4.05,2.4899799195977463,86.84987046622464,4.524930938699507,2.7202941017470885,3.0454884665682123,4.530452516029718,2.8416544476765644,4.969909455915671,78,3154,137,92,105,163,95,162,4.24,7483.609999999999,18.444374999999997,4.6775,4.759375,17.549374999999998,4.744375,22.2975,92,4403,208,100,103,207,107,218,12,19,8,12,9,15,8,14
1.875,80.9,3.35,2.25,2.55,4.225,2.425,3.9,2.4135036772294343,88.85662608944817,4.449719092257398,2.701851217221259,2.9832867780352594,4.661008474568567,2.876629972728505,4.69041575982343,75,3236,134,90,102,169,97,156,4.069375,7863.577499999999,17.9775,4.74,4.6975,19.244374999999998,5.2993749999999995,20.04,93,4482,205,103,102,216,111,213,12,19,8,12,9,15,9,14
1.9,78.975,3.35,2.275,2.55,4.125,2.45,3.925,2.4596747752497685,87.27184540274143,4.449719092257398,2.715695122800054,2.9832867780352594,4.596194077712559,2.8809720581775866,4.698403984333403,76,3159,134,91,102,165,98,157,4.227500000000001,7602.499374999999,17.9775,4.734375,4.6975,18.949374999999996,5.41,19.899375,96,4600,204,104,100,222,106,211,12,20,8,12,9,16,9,14
1.925,78.15,3.275,2.3,2.5,4.0,2.3,3.775,2.4949949899749297,86.78363901104862,4.407380174207803,2.7386127875258306,2.949576240750525,4.47213595499958,2.6645825188948455,4.568916720624267,77,3126,131,92,100,160,92,151,4.334375,7522.99,17.249375,4.7775,4.897499999999999,18.1775,4.6975,18.234375,94,4413,201,100,98,211,98,204,12,19,8,11,8,15,8,13
1.95,77.75,3.425,2.375,2.525,4.025,2.375,3.875,2.5,86.26586810552595,4.5083256315399405,2.8591956910991594,2.962262648719725,4.50277692096777,2.7883686987197374,4.677071733467427,78,3110,137,95,101,161,95,155,4.290000000000001,7369.55,18.569375,4.659375,4.6743749999999995,17.634375,4.624375000000001,19.984375,94,4406,203,97,94,212,96,205,12,19,9,10,7,15,7,13
1.9,79.825,3.375,2.325,2.375,4.15,2.325,3.8,2.4596747752497685,88.29849942099808,4.463742824133129,2.8240042492885875,2.806243040080456,4.626013402488151,2.734044622898463,4.571651780264984,76,3193,135,93,95,166,93,152,4.2275,7755.344375000001,18.299375,4.824375,4.359375,19.15,4.834375,19.21,92,4477,207,101,94,218,102,207,12,19,10,11,7,15,8,13
1.9,77.725,3.4,2.375,2.35,4.05,2.275,3.825,2.4596747752497685,86.52066227208388,4.466542286825459,2.8416544476765644,2.7748873851023217,4.560701700396552,2.715695122800054,4.58530260724415,76,3109,136,95,94,162,91,153,4.2275,7467.119375,18.259999999999998,4.744375,4.8100000000000005,18.84,4.894374999999999,18.994374999999998,91,4583,207,104,95,226,101,207,12,20,10,12,7,16,8,13
1.975,77.025,3.4,2.425,2.35,3.975,2.175,3.725,2.5049950099750697,86.12331275560642,4.466542286825459,2.8591956910991594,2.7748873851023217,4.50277692096777,2.602883016964074,4.541475531146237,79,3081,136,97,94,159,87,149,4.244375,7404.084375,17.99,4.659375,4.81,18.519375,4.599375,18.299375,91,4400,203,104,98,215,94,201,12,19,10,12,8,15,7,12
1.925,76.475,3.425,2.45,2.425,4.0,2.25,3.725,2.4849547279578355,85.40506425265424,4.4860896112315904,2.8635642126552705,2.8151376520518494,4.544227107000705,2.7294688127912363,4.541475531146237,77,3059,137,98,97,160,90,149,4.284375,7208.924375,18.624374999999997,4.59,4.774375000000001,17.759999999999998,4.56,18.999374999999997,92,4387,202,103,95,210,94,202,12,19,11,12,8,14,6,12
1.85,78.55,3.3,2.5,2.4,4.05,2.275,3.625,2.4083189157584592,87.45770406316416,4.272001872658765,2.9154759474226504,2.7838821814150108,4.598912915026768,2.752271788904577,4.384632253678751,74,3142,132,100,96,162,91,145,4.2375,7597.727499999999,17.04,5.4375,5.1899999999999995,19.0475,5.094375,17.844375,90,4458,203,105,96,223,102,201,12,19,12,13,8,15,7,12
1.85,76.475,3.325,2.4,2.375,3.975,2.225,3.65,2.4083189157584592,85.74453335344475,4.286607049870562,2.8106938645110393,2.779388421937459,4.541475531146237,2.715695122800054,4.398863489584555,74,3059,133,96,95,159,89,146,4.359999999999999,7326.3693749999975,17.109375,5.1775,5.084375,18.734375,5.199375,17.66,90,4565,200,107,96,230,102,202,12,20,12,14,8,16,7,12
1.825,75.825,3.25,2.375,2.375,3.9,2.175,3.65,2.4031229681395834,85.36465896376556,4.260281680828158,2.797320146139873,2.779388421937459,4.466542286825459,2.6410225292488514,4.398863489584555,73,3033,130,95,95,156,87,146,4.394375,7267.544375,16.71,5.344375,5.084375,18.26,4.944375,17.66,89,4388,197,104,96,220,101,201,12,19,11,14,8,15,8,12
1.75,75.325,3.25,2.425,2.55,3.975,2.2,3.675,2.355843797877949,84.7120121352338,4.260281680828158,2.8679260799399975,2.9916550603303182,4.574385204593072,2.6457513110645907,4.424364361125788,70,3013,130,97,102,159,88,147,4.34,7076.624374999999,17.0475,5.074375,5.71,18.284375,4.8975,18.419374999999995,88,4374,194,104,97,216,99,200,12,19,11,14,8,14,8,12
1.75,77.425,3.2,2.4,2.575,4.05,2.15,3.675,2.355843797877949,86.79357695129289,4.165333119931706,2.8460498941515415,3.029026246172192,4.663689526544408,2.588435821108957,4.424364361125788,70,3097,128,96,103,162,86,147,4.55,7471.109375,16.35,5.0375,6.694374999999999,19.9275,5.01,18.419375,86,4445,193,106,104,229,101,204,11,19,11,14,8,15,8,12
1.775,75.375,3.25,2.375,2.55,3.95,2.125,3.7,2.382225849914319,85.05189592243079,4.201190307520001,2.832843094843059,3.024896692450835,4.577116996538323,2.564176280991617,4.4328320518603,71,3015,130,95,102,158,85,148,4.409375,7199.894374999999,16.3275,5.049375,6.590000000000001,19.3875,4.949375000000001,18.3275,90,4551,193,106,105,235,103,207,12,20,11,14,7,16,9,12
1.8,74.7,3.15,2.4,2.5,3.975,2.1,3.575,2.3979157616563596,84.67408104018608,4.129164564412516,2.8460498941515415,2.9916550603303182,4.596194077712559,2.5592967784139455,4.361765697512878,72,2988,126,96,100,159,84,143,4.540000000000001,7143.1775,15.4875,5.0375,6.547499999999999,19.499375,4.9875,17.399375,93,4378,189,106,105,230,105,198,12,19,10,14,7,15,9,11
1.775,74.225,3.125,2.5,2.55,4.0,2.125,3.575,2.39269722280108,84.08581925628125,4.107919181288746,2.9154759474226504,3.0740852297878796,4.620606020859169,2.57390753524675,4.361765697512878,71,2969,125,100,102,160,85,143,4.569375000000001,6962.784375,15.719375,5.0775,6.890000000000001,19.1,4.999375,18.074375,92,4370,187,106,110,226,105,201,12,19,10,14,7,15,9,11
1.7,76.275,3.05,2.55,2.45,4.15,2.05,3.475,2.3130067012440754,86.15697882354046,3.987480407475377,2.9664793948382653,3.0083217912982647,4.748684028233506,2.5298221281347035,4.198213905936666,68,3051,122,102,98,166,82,139,4.4475,7353.719375000001,14.9,5.910000000000001,6.8,20.860000000000003,4.959999999999999,16.859375,90,4428,187,114,115,234,106,199,12,19,11,15,7,16,9,11
1.7,74.2,3.125,2.5,2.325,4.075,2.025,3.45,2.3130067012440754,84.26980479388806,4.0155946010522525,2.949576240750525,2.9025850547399985,4.693080012102926,2.4949949899749297,4.177319714841085,68,2968,125,100,93,163,81,138,4.54,7062.3375,14.969375,5.9775,6.534375,20.524375,4.844375,16.347500000000004,90,4531,183,116,114,243,109,200,12,20,11,15,7,17,9,11
1.675,73.625,3.0,2.425,2.225,4.075,1.925,3.35,2.307596151842865,83.94507132643345,3.905124837953327,2.8853076092507015,2.832843094843059,4.693080012102926,2.4135036772294343,4.104875150354759,67,2945,120,97,89,163,77,134,4.559375,7014.569375000001,13.6875,5.844375,6.399375000000001,20.524375,4.6693750000000005,15.41,87,4354,174,114,110,237,110,194,11,19,10,15,7,16,9,10
1.6,73.075,2.925,2.5,2.325,4.175,1.975,3.375,2.258317958127243,83.2410655866442,3.8373167708699785,2.949576240750525,2.9025850547399985,4.8192323040085965,2.4748737341529163,4.126136207155551,64,2923,117,100,93,167,79,135,4.1975,6807.524375000001,13.569375000000003,5.977499999999999,6.534375,20.899375000000003,4.859375,15.974374999999998,78,4337,172,114,110,236,113,196,10,19,10,15,7,16,9,10
1.475,75.225,2.825,2.425,2.275,4.45,1.925,3.4,2.0554804791094465,85.3831072285379,3.6228441865473595,2.8853076092507015,2.850438562747845,5.123475382979799,2.434132288927617,4.165333119931706,59,3009,113,97,91,178,77,136,3.544375,7211.509375,12.174375,5.844375000000001,6.624375000000001,24.6875,4.874375000000001,16.247500000000002,78,4407,169,115,113,248,117,200,10,19,10,15,8,17,10,10
1.425,73.25,2.85,2.4,2.275,4.3,1.9,3.45,1.9557607215607946,83.68930636586731,3.63318042491699,2.8722813232690143,2.850438562747845,5.004997502496879,2.4186773244895647,4.189272013130682,57,2930,114,96,91,172,76,138,3.2243749999999998,6956.290000000003,12.0975,6.0,6.624374999999999,23.839999999999996,4.85,16.2275,76,4514,171,117,115,258,119,202,10,20,10,16,8,18,10,10
1.425,72.725,2.825,2.45,2.275,4.3,1.85,3.375,1.9557607215607946,83.38450095791184,3.615936946352909,2.924038303442689,2.850438562747845,5.004997502496879,2.3979157616563596,4.162331077653482,57,2909,113,98,91,172,74,135,3.2243749999999998,6912.334375,11.694374999999999,6.1475,6.624375000000001,23.84,4.847499999999999,15.824374999999998,77,4350,163,119,116,252,116,198,10,19,9,16,8,17,9,9
1.425,72.325,2.8,2.45,2.425,4.325,1.925,3.325,1.9557607215607946,82.8937573041541,3.5846896657869842,2.924038303442689,3.1024184114977142,5.032395056034453,2.5049950099750697,4.126136207155551,57,2893,112,98,97,173,77,133,3.2243749999999998,6739.699374999999,11.947500000000002,5.99,7.734375,23.434375,5.009375,15.869375,75,4340,165,115,121,245,116,197,10,19,10,15,8,16,8,9
1.375,74.4,2.725,2.35,2.425,4.475,1.9,3.375,1.9039432764659772,85.0070585304538,3.4241787336527865,2.7838821814150108,3.1024184114977142,5.208166663999915,2.479919353527449,4.22196636651691,55,2976,109,94,97,179,76,135,3.169375,7137.839999999999,10.959375,5.5,8.124375,25.969374999999996,5.15,16.559375,74,4401,166,112,130,259,122,201,10,19,11,15,9,17,9,10
1.35,72.4,2.75,2.3,2.3,4.4,1.925,3.425,1.8973665961010275,83.19975961503735,3.427827300200522,2.7658633371878665,3.0,5.172040216394301,2.5049950099750697,4.23379262600331,54,2896,110,92,92,176,77,137,3.1774999999999998,6867.44,11.0275,5.5475,7.789999999999999,25.75,5.509375,16.544375,73,4502,169,111,131,268,121,206,9,20,12,14,9,18,9,10
1.325,72.075,2.675,2.3,2.275,4.3,1.875,3.4,1.8907670401189038,83.01400484255653,3.3726843908080104,2.7658633371878665,2.979093821953246,5.113707070218238,2.444381312316063,4.224926034855522,53,2883,107,92,91,172,75,136,3.1193750000000002,6841.269374999999,10.424375000000001,5.4,7.719374999999999,25.34,5.2943750000000005,16.41,73,4344,165,108,128,261,123,203,9,19,11,13,8,17,10,9
1.35,71.75,2.725,2.325,2.35,4.425,1.95,3.475,1.91049731745428,82.61174250674053,3.4168699126539774,2.797320146139873,3.0659419433511785,5.222547271207796,2.5199206336708304,4.32145808726638,54,2870,109,93,94,177,78,139,3.0875,6675.859999999999,10.994375000000002,5.499375000000001,7.8375,26.009375,5.539999999999999,17.819375,70,4338,163,109,124,263,123,205,8,19,11,13,7,17,10,9
1.275,73.725,2.675,2.25,2.3,4.55,1.9,3.525,1.8096961070853856,84.6777715814487,3.29772648956823,2.701851217221259,3.0,5.329165037789691,2.479919353527449,4.424364361125788,51,2949,107,90,92,182,76,141,2.819375,7065.774374999999,10.274375000000001,5.4775,7.897499999999999,27.590000000000003,5.4275,18.624374999999997,69,4407,163,113,130,274,125,211,8,19,11,14,8,18,10,9
1.3,71.975,2.65,2.2,2.25,4.475,1.85,3.5,1.8439088914585775,83.19750597223452,3.286335345030997,2.6645825188948455,2.9664793948382653,5.2796780204857185,2.4596747752497685,4.410215414239989,52,2879,106,88,90,179,74,140,2.91,6849.999374999999,10.0775,5.409999999999999,7.8,27.194375,5.41,18.240000000000002,68,4478,168,115,134,278,123,217,7,20,11,15,9,19,10,9
1.3,72.65,2.6,2.15,2.225,4.55,1.85,3.625,1.8439088914585775,83.42032126526486,3.255764119219941,2.6457513110645907,2.9453352950046283,5.300943312279429,2.4596747752497685,4.5083256315399405,52,2906,104,86,89,182,74,145,2.8375,6875.227499999999,9.6975,5.4375,7.724375,27.29,5.327500000000001,19.374374999999997,68,4440,165,116,134,275,120,220,6,20,11,15,9,19,9,10
1.3,73.625,2.65,2.225,2.225,4.65,1.9,3.525,1.8439088914585775,84.30969695118112,3.271085446759225,2.7431733448690405,2.9453352950046283,5.412947441089743,2.539685019840059,4.41871021905714,52,2945,106,89,89,186,76,141,2.8375,7005.609375,9.89,5.769375000000001,7.724375,28.3,5.639999999999999,18.369374999999998,64,4311,165,118,130,270,121,212,6,19,11,14,8,18,9,9
1.2,73.625,2.775,2.25,2.25,4.775,2.0,3.55,1.6733200530681511,84.30969695118112,3.4749100707788108,2.756809750418044,2.9664793948382653,5.6058005672695845,2.6172504656604803,4.455333881989093,48,2945,111,90,90,191,80,142,2.44,7005.609375,11.024375000000001,5.91,7.897499999999999,30.659375,6.21,18.639999999999997,60,4388,171,123,136,284,130,216,6,19,12,14,9,19,10,10
1.25,74.0,2.8,2.25,2.175,4.75,2.05,3.625,1.7320508075688772,84.42748367682174,3.4856850115866753,2.756809750418044,2.9283100928692645,5.60357029044876,2.6362852652928135,4.497221364353772,50,2960,112,90,87,190,82,145,2.5100000000000002,7017.75,10.940000000000001,6.0375,7.524374999999999,30.589999999999996,6.227500000000001,18.844375,62,4538,174,120,135,292,135,218,6,20,12,14,8,19,11,10
1.275,74.325,2.775,2.15,2.225,4.85,2.175,3.675,1.7535677916750183,84.56787215012567,3.4749100707788108,2.6457513110645907,2.962262648719725,5.674504383644443,2.797320146139873,4.530452516029718,51,2973,111,86,89,194,87,147,2.549375,7034.5443749999995,11.024375000000001,5.6775,7.619375,31.2,6.874375000000001,19.474375000000002,62,4471,172,120,136,294,136,224,6,20,12,15,8,19,11,11
1.325,74.0,2.825,2.2,2.225,4.95,2.175,3.825,1.7818529681205462,84.18461854757079,3.531996602489872,2.7202941017470885,2.962262648719725,5.813776741499453,2.797320146139873,4.628714724413247,53,2960,113,88,89,198,87,153,2.5743750000000003,6976.8,11.524375000000001,5.96,7.619375,32.589999999999996,6.874375000000001,20.659375,61,4288,172,120,134,287,132,223,6,19,12,14,8,18,10,11
1.325,74.0,2.95,2.175,2.275,5.05,2.2,4.0,1.7818529681205462,84.18461854757079,3.653765181289022,2.715695122800054,2.9958304357890486,5.932958789676531,2.819574435974337,4.868264577855234,53,2960,118,87,91,202,88,160,2.5743750000000003,6976.8,12.14,5.874375,8.024375000000001,34.2,7.047499999999999,22.597500000000004,60,4351,183,123,139,299,137,238,5,19,13,14,9,18,11,12
1.325,74.125,3.0,2.15,2.3,5.0,2.275,4.0,1.7818529681205462,84.23286175834227,3.681032463861192,2.692582403567252,3.0,5.92452529743945,2.8591956910991594,4.868264577855234,53,2965,120,86,92,200,91,160,2.5743750000000003,6982.284375,12.227500000000001,5.6875,8.0,34.197500000000005,7.124375000000001,22.5975,59,4510,184,119,141,308,142,245,5,20,13,13,10,18,12,12
1.3,74.45,2.975,2.125,2.35,5.05,2.3,4.0,1.760681686165901,84.38512902164693,3.6776351096866584,2.669269563007828,3.0495901363953815,5.9497899122574065,2.8722813232690143,4.868264577855234,52,2978,119,85,94,202,92,160,2.5375,7000.947499999999,12.144375,5.624374999999999,8.197500000000002,34.4,7.147499999999999,22.7,59,4446,186,122,143,306,142,245,6,20,13,14,10,18,12,12
1.375,74.0,3.1,2.2,2.425,5.025,2.375,4.1,1.823458252881047,83.8555305272109,3.7616485747608057,2.819574435974337,3.158322339470751,5.918192291570121,2.962262648719725,4.949747468305833,55,2960,124,88,97,201,95,164,2.8693750000000002,6921.5,13.0475,6.26,8.709375,34.074374999999996,7.509375,23.69,62,4255,188,123,143,294,140,242,7,19,13,14,10,17,11,11
1.45,74.0,3.125,2.2,2.475,5.025,2.325,4.2,1.9235384061671346,83.8555305272109,3.784838173555112,2.819574435974337,3.1898275815473163,5.918192291570121,2.9283100928692645,5.10881590977792,58,2960,125,88,99,201,93,168,3.1375,6921.5,13.169374999999999,6.26,9.124375,34.074374999999996,7.194374999999999,25.1,65,4311,194,128,152,300,144,254,8,19,14,14,11,17,12,12
1.375,74.0,3.125,2.175,2.475,5.05,2.35,4.225,1.7818529681205462,83.8555305272109,3.784838173555112,2.806243040080456,3.1898275815473163,5.92452529743945,2.9410882339705484,5.121035051627747,55,2960,125,87,99,202,94,169,2.719375,6921.5,13.169374999999999,6.374374999999999,9.224374999999998,34.1,7.0875,25.174375,66,4471,197,128,152,308,145,258,8,20,14,14,11,18,12,12
1.275,74.3,3.125,2.15,2.5,5.15,2.325,4.2,1.665833124895768,84.00208330749899,3.784838173555112,2.7838821814150108,3.2015621187164243,5.991660871578097,2.9368350311176825,5.118593556827891,51,2972,125,86,100,206,93,168,2.444375,6939.710000000001,13.169374999999997,6.3100000000000005,9.1475,34.69,7.124375000000001,25.0975,65,4415,191,128,152,308,142,255,8,20,13,15,11,18,12,12
1.275,73.9,3.125,2.075,2.575,5.225,2.225,4.15,1.665833124895768,83.54370113898474,3.784838173555112,2.659887215654077,3.2825295124339706,6.08481717063052,2.797320146139873,5.059644256269407,51,2956,125,83,103,209,89,166,2.444375,6871.389999999999,13.169374999999999,5.809375,9.509375,35.644375000000004,6.559375,24.39,66,4225,189,122,153,298,136,248,8,19,13,14,11,17,11,11
1.3,73.9,3.275,2.075,2.675,5.25,2.225,4.225,1.6881943016134133,83.54370113898474,4.0155946010522525,2.659887215654077,3.342902930089356,6.115553940568262,2.797320146139873,5.155094567512801,52,2956,131,83,107,210,89,169,2.4899999999999998,6871.390000000001,14.624375,5.809375,10.124375,36.0775,6.559375,25.194374999999997,67,4281,202,123,159,307,138,259,8,19,14,14,12,17,12,12
1.3,74.0,3.325,2.025,2.675,5.325,2.25,4.2,1.6881943016134133,83.58438849450297,4.040420770167384,2.6410225292488514,3.342902930089356,6.146136998147698,2.80178514522438,5.142956348249516,52,2960,133,81,107,213,90,168,2.49,6876.1,14.699375,5.819374999999999,9.794374999999999,36.274375,6.640000000000001,25.1275,66,4441,207,124,161,318,138,262,8,20,14,14,12,18,12,12
1.25,74.475,3.275,2.0,2.675,5.325,2.225,4.225,1.6278820596099706,83.8368952192291,4.028026812224566,2.6267851073127395,3.342902930089356,6.146136998147698,2.797320146139873,5.145386282875174,50,2979,131,80,107,213,89,169,2.3475,6908.174375,14.724375,5.797499999999999,9.794374999999999,36.274375,6.669375,25.209375,63,4393,204,124,161,314,134,260,8,20,13,14,12,18,12,12
1.275,74.05,3.25,2.15,2.75,5.3,2.2,4.275,1.6355427233796125,83.36666000266533,4.006245124802026,2.8460498941515415,3.442382895611701,6.115553940568262,2.7477263328068173,5.203364296299078,51,2962,130,86,110,212,88,171,2.399375,6838.6975,14.4875,6.659999999999999,10.2875,35.96,6.4475,25.919375000000002,64,4195,198,125,159,305,130,256,9,19,12,13,11,17,11,11
1.325,74.05,3.375,2.075,2.7,5.325,2.2,4.4,1.695582495781317,83.36666000266533,4.23379262600331,2.779388421937459,3.4132096331752027,6.142068055630775,2.7477263328068173,5.380520420925842,53,2962,135,83,108,213,88,176,2.484375,6838.6975,16.034375,6.099374999999999,9.959999999999999,36.344375,6.4475,27.51,68,4249,209,128,163,311,136,271,10,19,13,13,12,17,12,12
1.425,74.125,3.325,2.075,2.75,5.325,2.175,4.45,1.8641351882307249,83.39499385454741,4.210106887004177,2.779388421937459,3.427827300200522,6.142068055630775,2.7431733448690405,5.417564028232615,57,2965,133,83,110,213,87,178,2.8743749999999997,6841.834375,15.969375,6.224374999999999,9.927499999999998,36.344375,6.369375000000001,27.7875,69,4402,215,126,164,319,135,272,10,20,13,12,12,18,11,12
1.45,74.6,3.375,2.075,2.85,5.375,2.225,4.45,1.8708286933869707,83.65942863778116,4.22196636651691,2.779388421937459,3.5425979167836705,6.174544517614234,2.8151376520518494,5.417564028232615,58,2984,135,83,114,215,89,178,2.8600000000000003,6875.69,15.934375,6.099374999999999,10.4475,36.624375,6.659375,27.7875,73,4361,213,122,163,317,138,274,10,20,13,12,12,18,11,13
1.45,74.075,3.45,2.05,2.75,5.3,2.275,4.45,1.8708286933869707,83.08956011437297,4.301162633521313,2.7386127875258306,3.398529093593286,6.0950799830683104,2.850438562747845,5.417564028232615,58,2963,138,82,110,212,91,178,2.8600000000000003,6792.0443749999995,16.81,5.9375,9.7275,35.8275,6.744375,27.7875,72,4157,211,122,154,302,137,264,10,19,13,12,11,17,11,12
1.475,74.075,3.425,2.1,2.625,5.325,2.275,4.475,1.9039432764659772,83.08956011437297,4.263214749458442,2.792848008753788,3.305298776207682,6.125765258316711,2.850438562747845,5.461226968365259,59,2963,137,84,105,213,91,179,2.769375,6792.0443749999995,16.549375,6.590000000000001,8.749375,36.259375,6.744375,28.199375000000003,70,4205,220,129,152,306,138,272,9,19,14,13,11,17,11,13
1.5,74.275,3.425,2.1,2.65,5.35,2.25,4.475,1.9493588689617927,83.17616846188577,4.263214749458442,2.792848008753788,3.3090784215548594,6.135959582656978,2.8372521918222215,5.461226968365259,60,2971,137,84,106,214,90,179,2.8975,6802.174375,16.549375,6.6975,8.8475,36.3275,6.839999999999999,28.199374999999996,66,4370,217,131,152,315,137,278,8,20,14,13,11,18,11,13
1.45,74.825,3.425,2.075,2.675,5.3,2.3,4.475,1.9235384061671346,83.47319929174873,4.263214749458442,2.779388421937459,3.3203915431767985,6.111464636239009,2.8548204847240397,5.461226968365259,58,2993,137,83,107,212,92,179,2.7,6839.519374999999,16.419375000000002,6.6743749999999995,8.849375,36.14,6.827500000000001,28.199375000000003,68,4325,218,131,150,315,138,274,8,20,14,14,11,18,11,13
1.5,74.425,3.475,2.1,2.65,5.325,2.35,4.525,1.9493588689617927,83.05525269361354,4.30987238790199,2.819574435974337,3.278719262151,6.1339220731926485,2.9068883707497264,5.524943438624508,60,2977,139,84,106,213,94,181,2.6975000000000002,6778.819375000001,16.949375,6.847500000000001,8.647499999999999,36.359375,7.010000000000001,29.024375,69,4126,216,127,147,307,138,271,8,19,14,13,11,17,11,12
1.55,74.425,3.525,2.1,2.725,5.375,2.425,4.775,2.0,83.05525269361354,4.378926809162263,2.819574435974337,3.3128537546954893,6.198790204547981,2.9453352950046283,5.96028522807424,62,2977,141,84,109,215,97,191,2.6775,6778.819375000001,17.419375000000002,6.847499999999999,9.084375,37.269375,7.409375,33.349374999999995,70,4169,226,132,155,313,142,292,8,19,15,14,12,17,12,13
1.65,74.55,3.5,2.1,2.725,5.4,2.425,4.725,2.1447610589527217,83.11317585076388,4.364630568559039,2.819574435974337,3.3128537546954893,6.2088646305101545,2.9453352950046283,5.943483826847685,66,2982,140,84,109,216,97,189,2.91,6785.6975,17.36,6.847499999999999,9.084375,37.339999999999996,7.409375,33.294374999999995,71,4337,229,135,158,322,145,304,8,20,15,14,12,18,13,13
1.675,75.175,3.5,2.075,2.75,5.4,2.475,4.75,2.1505813167606567,83.47709266619196,4.364630568559039,2.8151376520518494,3.3166247903554,6.2088646305101545,2.962262648719725,5.9497899122574065,67,3007,140,83,110,216,99,190,2.9993749999999997,6832.119375,17.4875,6.874375000000001,9.040000000000001,37.339999999999996,7.394374999999999,33.5775,77,4297,229,132,155,321,142,302,9,20,15,14,12,18,13,13
1.75,74.775,3.45,2.05,2.75,5.35,2.45,4.8,2.202271554554524,83.05434967537823,4.3531597719357835,2.7838821814150108,3.3166247903554,6.15223536610881,2.932575659723036,5.991660871578097,70,2991,138,82,110,214,98,192,3.0275,6770.899375000001,17.259999999999998,6.75,9.040000000000001,36.7475,7.277500000000001,34.209999999999994,80,4093,222,132,152,303,138,295,10,19,14,14,11,17,12,12
1.75,74.775,3.525,2.075,2.725,5.275,2.475,4.85,2.202271554554524,83.05434967537823,4.48051336344397,2.797320146139873,3.305298776207682,6.035312750802563,2.9453352950046283,6.058052492344384,70,2991,141,83,109,211,99,194,3.1599999999999997,6770.899375000001,18.184375,6.969375000000001,8.894375,35.159375,7.409375,34.877500000000005,82,4140,227,135,154,305,141,306,11,19,14,14,12,17,13,13
1.75,74.75,3.55,2.075,2.775,5.3,2.475,4.9,2.202271554554524,83.04456634843727,4.494441010848846,2.797320146139873,3.3354160160315836,6.041522986797286,2.9453352950046283,6.0909769331364245,70,2990,142,83,111,212,99,196,3.16,6769.8375,18.240000000000002,6.874375000000001,8.949375,35.1775,7.409375,35.14,84,4294,233,133,157,311,143,307,12,20,14,14,13,18,13,13
1.75,75.45,3.525,2.1,2.825,5.275,2.525,4.925,2.202271554554524,83.4817345291771,4.4860896112315904,2.8372521918222215,3.3800887562311144,6.022873068561216,2.962262648719725,6.093028803476971,70,3018,141,84,113,211,101,197,3.16,6826.397499999999,18.369374999999998,7.05,9.099375,35.009375,7.394374999999999,35.234375,85,4272,231,134,152,312,139,311,12,20,13,14,13,18,13,14
1.8,74.875,3.55,2.15,2.675,5.3,2.575,4.95,2.224859546128699,82.9115492558184,4.511097427455985,2.8722813232690143,3.150396800404673,6.04979338490167,3.0618621784789726,6.103277807866851,72,2995,142,86,107,212,103,198,3.1275,6744.934375,18.66,7.147499999999999,8.034375,35.2775,7.874374999999999,35.427499999999995,85,4056,225,135,143,300,137,302,12,19,12,14,12,17,12,13
1.775,74.875,3.625,2.15,2.65,5.275,2.6,5.0,2.219234102117215,82.9115492558184,4.6341126442934035,2.8722813232690143,3.1304951684997055,6.014565653478229,3.082207001484488,6.18465843842649,71,2995,145,86,106,211,104,200,3.034375,6744.934375,19.584375,7.347499999999999,7.840000000000001,34.794375,8.059999999999999,36.29,86,4091,232,138,144,305,146,309,12,19,12,15,13,17,13,14
1.8,74.85,3.6,2.175,2.725,5.3,2.575,4.95,2.224859546128699,82.90084438653204,4.631414470763764,2.876629972728505,3.1662280397975127,6.020797289396148,3.0618621784789726,6.176568626672903,72,2994,144,87,109,212,103,198,2.9900000000000007,6743.727500000001,19.490000000000002,7.419375,7.849374999999999,34.809999999999995,7.619375,36.3275,87,4248,239,138,147,315,146,317,12,20,12,15,14,18,13,14
1.825,75.5,3.575,2.225,2.7,5.325,2.55,4.925,2.2304708023195463,83.32316604642433,4.628714724413247,2.9111853256019273,3.1543620591175006,6.027022482121666,3.0495901363953815,6.174544517614234,73,3020,143,89,108,213,102,197,3.084375,6798.75,19.534375,7.524375000000001,7.847499999999999,34.824374999999996,7.609999999999999,36.234375,87,4225,234,139,146,309,145,311,13,20,12,16,14,18,13,14
1.775,74.875,3.575,2.25,2.7,5.275,2.525,4.875,2.207940216581962,82.69446777142954,4.628714724413247,2.949576240750525,3.1543620591175006,5.977039400907443,3.020761493398643,6.125765258316711,71,2995,143,90,108,211,101,195,3.1193750000000002,6708.984375,19.534375,7.7,7.847499999999999,34.344375,7.499375000000001,35.494375,87,4006,227,135,142,298,144,299,13,19,11,15,13,17,13,13
1.8,74.875,3.625,2.3,2.725,5.275,2.6,4.9,2.224859546128699,82.69446777142954,4.714339826529267,3.0,3.181980515339464,5.977039400907443,3.082207001484488,6.168468205316454,72,2995,145,92,109,211,104,196,3.1275,6708.984375,20.194375,8.0975,8.094375000000001,34.344375,8.1775,35.947500000000005,87,4041,234,141,147,301,150,307,13,19,12,15,13,17,14,14
1.825,74.875,3.675,2.325,2.725,5.225,2.65,4.85,2.2638462845343543,82.69446777142954,4.73550419702063,3.0124740662784135,3.181980515339464,5.968668193156661,3.0983866769659336,6.160357132504576,73,2995,147,93,109,209,106,194,3.234375,6708.984375,20.249375,8.309375,8.234375,34.359375,8.16,35.989999999999995,87,4199,240,142,149,307,155,310,13,20,12,15,13,17,15,13
1.8,75.7,3.675,2.375,2.85,5.275,2.675,4.75,2.258317958127243,83.26613957666105,4.73550419702063,3.029026246172192,3.3541019662496847,6.002082971769051,3.110466202999158,6.0950799830683104,72,3028,147,95,114,211,107,190,3.2775,6784.409999999998,20.394375000000004,8.319374999999999,9.0,34.644375000000004,8.174375,34.9,91,4182,241,141,155,307,151,308,13,20,12,16,14,17,15,13
1.775,74.85,3.725,2.375,2.85,5.2,2.625,4.8,2.252776065213762,82.45574570640908,4.767074574621211,3.029026246172192,3.3541019662496847,5.920304046246273,3.0454884665682123,6.119640512317697,71,2994,149,95,114,208,105,192,3.319375,6670.1275,20.834375,8.319375,9.0,33.839999999999996,7.894374999999999,35.347500000000004,89,3971,234,137,151,288,143,301,12,19,11,15,13,16,14,12
1.8,74.85,3.75,2.35,2.85,5.125,2.575,4.925,2.2693611435820435,82.45574570640908,4.811444689487764,3.0166206257996713,3.3541019662496847,5.798706752371601,2.9958304357890486,6.310705190388789,72,2994,150,94,114,205,103,197,3.1900000000000004,6670.1275,21.19,8.1975,9.0,32.244375000000005,7.474374999999999,37.344375,87,3999,241,142,155,290,142,314,11,19,12,16,14,17,14,13
1.75,74.85,3.7,2.325,2.9,5.175,2.55,4.925,2.224859546128699,82.45574570640908,4.801041553663121,3.0124740662784135,3.3689761055846033,5.807322963293845,2.9832867780352594,6.310705190388789,70,2994,148,93,116,207,102,197,3.1275,6670.1275,21.2275,8.124375,8.9475,32.224374999999995,7.459999999999999,37.344375,87,4151,247,141,157,294,141,314,11,20,12,15,15,18,14,12
1.725,75.8,3.7,2.425,2.925,5.2,2.4,4.875,2.207940216581962,83.16700066733199,4.801041553663121,3.110466202999158,3.3948490393535913,5.835237784358063,2.8284271247461903,6.286891123599962,69,3032,148,97,117,208,96,195,3.2493749999999997,6765.460000000001,21.09,8.519375,9.044374999999999,32.4875,6.897499999999999,36.884375,89,4148,244,142,159,295,140,318,12,20,12,15,15,18,14,13
1.7,74.925,3.675,2.375,2.95,5.15,2.4,4.875,2.1908902300206643,82.36883512591398,4.777551674236501,3.0454884665682123,3.420526275297414,5.757603668193912,2.8284271247461903,6.286891123599962,68,2997,147,95,118,206,96,195,3.2375,6654.094375000001,20.794375,8.224375,9.139999999999999,31.709999999999997,6.897499999999999,36.884375,90,3951,238,139,153,277,137,306,13,19,11,15,14,17,13,12
1.675,74.925,3.75,2.475,2.975,5.1,2.325,4.975,2.185177338341216,82.36883512591398,4.893873721296862,3.110466202999158,3.4460121880225554,5.68770604022395,2.7883686987197374,6.474951737271869,67,2997,150,99,119,204,93,199,3.2743750000000005,6654.094375000001,21.7,8.819374999999999,9.394375,30.7875,6.509375,38.949374999999996,89,3974,248,144,157,283,135,318,12,19,12,16,14,18,12,13
1.675,74.9,3.75,2.45,2.975,5.175,2.325,4.95,2.185177338341216,82.35836326688383,4.893873721296862,3.0983866769659336,3.4460121880225554,5.707451270050407,2.7883686987197374,6.469157595854347,67,2996,150,98,119,207,93,198,3.2743750000000005,6652.94,21.7,8.6975,9.394375,30.81937499999999,6.509375,38.96,88,4124,251,143,159,289,137,328,11,20,12,15,15,19,12,13
1.675,75.725,3.75,2.5,2.9,5.15,2.35,5.0,2.185177338341216,82.98207637797454,4.893873721296862,3.146426544510455,3.391164991562634,5.692099788303083,2.8106938645110393,6.48459713474939,67,3029,150,100,116,206,94,200,3.2743750000000005,6736.574374999999,21.7,8.9,9.25,30.71,6.577500000000001,39.3275,86,4125,249,143,157,286,134,327,11,20,12,16,15,19,12,13
1.625,74.675,3.775,2.325,2.85,5.1,2.325,5.025,2.138924963620744,82.1043543303277,4.921889880929886,2.9453352950046283,3.3166247903554,5.639148871948674,2.7703790354390136,6.509608283145768,65,2987,151,93,114,204,93,201,2.949375,6616.244375,22.049374999999998,7.994375,8.897499999999999,30.2375,6.409375,39.734375,81,3939,246,140,151,274,129,315,11,19,11,16,14,18,11,12
1.65,74.675,4.0,2.45,2.825,5.15,2.35,5.1,2.1908902300206643,82.1043543303277,5.296225070746145,3.0495901363953815,3.29772648956823,5.709640969448079,2.7838821814150108,6.640783086353597,66,2987,160,98,113,206,94,204,3.1100000000000003,6616.244375,25.160000000000004,8.809999999999999,8.699375,31.160000000000004,6.540000000000001,41.21,85,3953,261,144,155,279,132,328,12,19,12,16,15,18,12,13
1.6,74.65,4.1,2.45,2.85,5.175,2.35,5.05,2.16794833886788,82.09415326318921,5.333854141237834,3.0495901363953815,3.3090784215548594,5.720576893985431,2.7838821814150108,6.6257075093909785,64,2986,164,98,114,207,94,202,3.1375,6615.1275,25.21,8.7375,8.8475,31.224375,6.540000000000001,41.339999999999996,88,4100,269,147,152,287,134,339,12,20,12,16,15,19,13,14
1.625,75.625,4.15,2.575,2.875,5.15,2.45,5.075,2.173706511928416,82.88018460404152,5.352569476429054,3.228776858192588,3.3279122584587473,5.6964901474504455,2.8548204847240397,6.627593831851798,65,3025,166,103,115,206,98,203,3.0993749999999998,6722.109375,25.2275,9.659375,8.899375000000001,31.01,6.710000000000001,41.444375,88,4112,263,152,154,286,134,334,12,20,11,16,16,19,13,14
1.6,74.575,4.15,2.575,2.85,5.075,2.475,5.075,2.16794833886788,82.02697726967635,5.352569476429054,3.228776858192588,3.2939338184001206,5.596874127582288,2.876629972728505,6.627593831851798,64,2983,166,103,114,203,99,203,3.1375,6605.769374999999,25.2275,9.659375,8.747499999999999,30.059375,6.774375000000001,41.444375,88,3937,257,152,146,270,131,325,12,19,11,15,15,18,12,13
1.625,74.575,4.0,2.6,2.8,5.075,2.525,5.125,2.19658826364888,82.02697726967635,5.181698563212646,3.24037034920393,3.248076353782343,5.596874127582288,2.9283100928692645,6.6951474965081985,65,2983,160,104,112,203,101,205,3.199375,6605.769374999999,23.96,9.7775,8.3,30.059375,7.194374999999999,42.184375,90,3947,260,156,145,272,137,334,12,19,12,16,15,18,13,14
1.625,74.5,3.95,2.65,2.75,5.0,2.525,5.1,2.19658826364888,81.99542670173746,5.162363799656123,3.255764119219941,3.2171415884290826,5.563272418280449,2.9283100928692645,6.689544080129826,65,2980,158,106,110,200,101,204,3.1993750000000003,6602.25,23.9275,9.79,8.389999999999999,29.847500000000007,7.074374999999999,42.19,92,4089,259,159,145,279,141,340,12,20,12,17,15,19,14,14
1.65,75.4,4.0,2.7,2.825,5.075,2.575,5.075,2.2135943621178655,82.78194247539737,5.172040216394301,3.286335345030997,3.29772648956823,5.610258461069329,2.9453352950046283,6.687675231349083,66,3016,160,108,113,203,103,203,3.21,6711.240000000001,24.19,9.897499999999999,8.699375,30.209375,7.049375,42.084375,91,4116,259,154,147,278,137,335,11,20,12,17,16,19,14,14
1.65,74.325,4.1,2.575,2.8,5.05,2.5,5.0,2.2135943621178655,81.96630405233604,5.267826876426369,3.110466202999158,3.255764119219941,5.58121850495033,2.8548204847240397,6.6257075093909785,66,2973,164,103,112,202,100,200,3.0774999999999997,6601.2943749999995,25.5,8.994375,8.497499999999999,29.939999999999998,6.709999999999999,41.010000000000005,88,3954,251,147,140,265,129,322,10,19,11,16,15,18,13,13
1.575,74.3,4.025,2.6,2.8,5.075,2.425,5.0,2.1621748310439655,81.9277120393338,5.145386282875174,3.122498999199199,3.255764119219941,5.6147128154519175,2.8151376520518494,6.6257075093909785,63,2972,161,104,112,203,97,200,3.049375,6594.4275,24.444375,9.110000000000001,8.4975,30.369374999999998,6.299375,41.010000000000005,87,3961,256,151,143,270,128,331,10,19,12,17,16,18,13,14
1.475,74.375,4.025,2.625,2.8,5.05,2.45,5.025,2.018662923818635,81.95928867431684,5.145386282875174,3.1344856037314957,3.255764119219941,5.608029957123981,2.819574435974337,6.646427611882943,59,2975,161,105,112,202,98,201,2.694375,6597.969375000001,24.444375,9.224375,8.4975,30.347500000000007,6.3875,41.199374999999996,84,4100,261,149,142,276,124,329,10,20,12,16,16,19,13,13
1.525,75.1,4.05,2.7,2.75,5.1,2.425,5.1,2.0676073128135335,82.58056672123291,5.157518783291051,3.1937438845342623,3.1780497164141406,5.661271941887264,2.779388421937459,6.674578638386096,61,3004,162,108,110,204,97,204,2.774375,6683.827500000001,24.910000000000004,9.477500000000001,8.14,30.840000000000003,6.224374999999999,41.8275,85,4125,257,152,141,282,127,335,10,20,11,17,16,19,14,14
1.575,73.925,4.0,2.725,2.775,5.1,2.4,5.125,2.091650066335189,81.77270326948963,5.10881590977792,3.228776858192588,3.2054640849649214,5.661271941887264,2.756809750418044,6.6951474965081985,63,2957,160,109,111,204,96,205,2.9943750000000002,6577.049375,24.2775,9.659375,8.244375,30.839999999999996,6.160000000000001,42.184375,87,3970,246,145,138,271,124,322,11,19,10,16,16,18,13,13
1.575,73.55,4.075,2.725,2.825,5.1,2.375,5.15,2.091650066335189,81.22284161490535,5.217758139277826,3.228776858192588,3.2210246816812815,5.661271941887264,2.7431733448690405,6.734240862933253,63,2942,163,109,113,204,95,206,2.9943750000000002,6479.4275,25.194375,9.269375,8.199375,30.839999999999996,6.024375,42.6275,91,3948,257,143,139,273,126,331,12,19,11,16,16,18,13,14
1.525,73.375,3.975,2.7,2.875,5.075,2.4,5.15,2.018662923818635,81.14416183558741,5.179285665031424,3.22490309931942,3.2519225083018197,5.65022123460666,2.756809750418044,6.734240862933253,61,2935,159,108,115,203,96,206,2.809375,6470.419375,25.069375,9.19,8.544374999999999,30.769374999999997,5.909999999999999,42.6275,88,4077,263,145,141,282,126,338,12,20,11,15,17,19,13,14
1.55,74.225,4.0,2.7,2.9,5.125,2.475,5.175,2.0248456731316584,81.90528066004048,5.186520991955976,3.22490309931942,3.271085446759225,5.676706791793989,2.850438562747845,6.73609679265374,62,2969,160,108,116,205,99,207,2.7775000000000003,6575.649374999999,25.3375,9.190000000000001,8.5975,30.959375,6.234375,42.734375,87,4111,259,142,144,280,127,333,12,20,10,15,18,19,13,14
1.6,72.975,3.95,2.65,2.925,5.05,2.425,5.05,2.0976176963403033,81.07696960296433,5.1478150704935,3.1622776601683795,3.3128537546954893,5.616938667993447,2.797320146139873,6.6332495807108,64,2919,158,106,117,202,97,202,2.96,6467.899374999999,24.81,8.897499999999999,8.799375000000001,30.44750000000001,6.069375000000001,40.9375,89,3966,248,135,139,266,123,312,12,19,9,14,17,18,12,13
1.6,72.575,4.0,2.575,2.9,5.05,2.4,4.9,2.0976176963403033,80.48773198444593,5.224940191045253,3.1024184114977142,3.2939338184001206,5.616938667993447,2.7748873851023217,6.356099432828281,64,2903,160,103,116,202,96,196,2.96,6364.319375000001,25.4775,8.359375,8.6,30.4475,5.8774999999999995,37.839999999999996,88,3938,255,135,144,266,121,310,12,19,10,15,18,18,12,14
1.525,72.475,4.0,2.6,2.9,5.05,2.325,4.925,1.9685019685029528,80.43926280119678,5.224940191045253,3.1064449134018135,3.2939338184001206,5.616938667993447,2.734044622898463,6.361996541966995,61,2899,160,104,116,202,93,197,2.609375,6358.644374999999,25.4775,8.3275,8.6,30.4475,5.849375,37.834375,83,4066,259,137,145,276,122,314,11,20,10,16,18,19,12,14
1.5,73.325,4.0,2.625,3.025,5.025,2.45,5.0,1.9621416870348585,81.25930715924176,5.224940191045253,3.110466202999158,3.4241787336527865,5.596874127582288,2.932575659723036,6.4031242374328485,60,2933,160,105,121,201,98,200,2.5275,6472.544375,25.339999999999996,8.294374999999999,9.084375,30.274375,6.640000000000001,38.5975,81,4105,259,134,148,276,128,317,10,20,10,16,18,19,12,15
1.425,71.725,4.125,2.625,2.975,5.0,2.4,4.975,1.9039432764659772,80.30862344729861,5.28441103624614,3.110466202999158,3.3800887562311144,5.572252686302013,2.898275349237888,6.381614215854794,57,2869,165,105,119,200,96,199,2.4693750000000003,6352.944375,26.299374999999998,8.294374999999999,8.944375,30.05,6.577500000000001,38.244375000000005,77,3977,256,131,147,263,129,302,9,19,11,15,17,18,11,14
1.425,71.075,4.05,2.625,3.025,4.975,2.375,4.925,1.9039432764659772,79.38057067066222,5.176871642217914,3.110466202999158,3.409545424246464,5.5385016024191955,2.8853076092507015,6.318623267769649,57,2843,162,105,121,199,95,197,2.359375,6191.549375,25.359999999999996,8.294374999999999,9.299375000000001,29.624374999999997,6.434375,37.599374999999995,74,3935,261,133,148,265,128,310,8,19,12,15,17,18,11,15
1.375,71.275,4.075,2.625,2.95,4.925,2.35,4.875,1.8506755523321747,79.47122120616997,5.1937462394691565,3.110466202999158,3.3763886032268267,5.529466520379701,2.8809720581775866,6.286891123599962,55,2851,163,105,118,197,94,195,2.269375,6201.719375000001,25.474375,8.409375,9.297500000000001,29.624374999999997,6.477500000000001,37.349375,72,4042,259,130,150,270,128,308,8,20,12,15,17,18,11,14
1.35,71.975,4.15,2.55,2.95,5.025,2.425,4.975,1.8439088914585775,80.17278216452264,5.229722745997153,3.024896692450835,3.3763886032268267,5.636931789546508,2.9706901555025893,6.334429729659964,54,2879,166,102,118,201,97,199,2.2975,6298.284375,26.027499999999996,8.0475,9.2975,30.61937499999999,6.794375,38.234375,72,4091,263,131,152,275,128,314,8,20,13,16,17,18,11,15
1.3,70.475,4.075,2.625,3.0,4.925,2.275,5.025,1.816590212458495,79.40198360242645,5.179285665031424,3.1344856037314957,3.420526275297414,5.547521969312064,2.7613402542968153,6.365924913160694,52,2819,163,105,120,197,91,201,2.3,6207.159375,25.324374999999996,8.559375,9.45,29.824375000000003,5.999375000000001,38.769375000000004,70,3976,251,130,148,265,122,300,8,19,12,15,16,17,10,14
1.3,69.625,4.025,2.65,3.0,4.9,2.225,5.0,1.816590212458495,78.215567504174,5.101470376273883,3.1543620591175006,3.420526275297414,5.513619500836088,2.7248853186877424,6.324555320336759,52,2785,161,106,120,196,89,200,2.3,6002.649375000001,24.644375,8.739999999999998,9.45,29.4,5.669375,38.309999999999995,69,3918,251,138,149,265,119,304,8,19,13,16,16,17,9,15
1.275,69.6,4.075,2.7,2.925,4.9,2.2,5.0,1.8096961070853856,78.20453951018445,5.111262075065218,3.1859064644147983,3.3874769371908644,5.513619500836088,2.711088342345192,6.324555320336759,51,2784,163,108,117,196,88,200,2.324375,6001.46,24.624375,8.709999999999999,9.444375,29.4,5.660000000000001,38.31,67,4013,256,140,149,274,120,314,7,20,13,16,16,18,9,15
1.3,70.3,4.15,2.625,2.925,4.975,2.3,5.125,1.8303005217723127,78.92623138095472,5.13322510708424,3.150396800404673,3.3874769371908644,5.561025085359713,2.819574435974337,6.373774391990981,52,2812,166,105,117,199,92,205,2.4475000000000002,6099.390000000001,25.0275,8.659375,9.444374999999999,29.769374999999997,5.99,39.244375,68,4070,257,141,146,274,122,314,7,20,13,16,16,18,9,15
1.35,68.625,4.1,2.6,2.875,4.975,2.275,5.05,1.857417562100671,78.12633998850836,5.103920062069938,3.1144823004794873,3.3279122584587473,5.561025085359713,2.797320146139873,6.332456079595025,54,2745,164,104,115,199,91,202,2.45,6009.149375,24.61,8.49,9.184375,29.769374999999997,5.934375,38.5375,70,3963,245,136,139,262,118,301,8,19,12,15,15,17,8,14
1.4,67.4,4.125,2.525,2.8,4.975,2.225,5.025,1.9364916731037085,76.50228754749756,5.150242712727236,3.053686296920494,3.271085446759225,5.561025085359713,2.7431733448690405,6.290866395020641,56,2696,165,101,112,199,89,201,2.6475,5732.697499999999,25.024375,7.824374999999999,8.5975,29.76937499999999,5.494375,38.074374999999996,70,3882,251,137,140,267,116,302,8,19,13,15,16,18,8,15
1.325,67.325,4.075,2.475,2.8,5.025,2.175,5.1,1.8371173070873836,76.46845754950208,5.130789412946121,3.037268509697488,3.271085446759225,5.570008976653448,2.7248853186877424,6.308724118235001,53,2693,163,99,112,201,87,204,2.424375,5729.159375,24.944375,7.599375,8.5975,29.759375,5.534375,38.11,69,3955,256,134,132,271,118,307,8,20,13,14,15,19,8,15
1.35,67.7,4.15,2.5,2.725,5.075,2.25,5.175,1.8439088914585775,76.86709308930578,5.167204273105526,3.057776970284131,3.142451272494134,5.623610939600996,2.819574435974337,6.350196847342608,54,2708,166,100,109,203,90,207,2.4,5781.9875,25.49,7.659999999999999,7.984375,30.244375,5.8475,38.824374999999996,69,3999,258,134,134,276,122,313,8,20,13,14,16,19,8,16
1.375,66.2,4.125,2.475,2.675,5.075,2.2,5.175,1.8506755523321747,76.24008132209724,5.150242712727236,3.020761493398643,3.09434968935316,5.623610939600996,2.7838821814150108,6.350196847342608,55,2648,165,99,107,203,88,207,2.4743749999999998,5717.4875,25.259375,7.499375000000001,8.074375,30.244375,5.790000000000001,38.824375,69,3897,246,129,133,265,121,298,9,19,12,13,16,18,7,15
1.35,65.0,4.075,2.5,2.65,4.975,2.2,5.1,1.8303005217723127,74.60127344757595,5.071981861166304,3.03315017762062,3.0740852297878796,5.5158861482086445,2.7838821814150108,6.224949798994366,54,2600,163,100,106,199,88,204,2.4475,5445.447499999999,24.569375,7.6375,7.8875,28.799375000000005,5.79,37.427499999999995,70,3817,247,134,128,264,121,303,10,19,13,14,15,18,7,16
1.35,64.85,4.15,2.6,2.625,5.0,2.2,5.05,1.8303005217723127,74.53891601036334,5.094114250780011,3.0983866769659336,3.0618621784789726,5.527205442174192,2.7838821814150108,6.2008063991709985,54,2594,166,104,105,200,88,202,2.4475000000000002,5439.41,24.627499999999998,7.777500000000001,7.874375000000001,28.860000000000003,5.79,37.45,68,3877,250,135,129,266,123,308,9,20,13,15,15,19,7,16
1.4,64.35,4.15,2.525,2.575,4.975,2.325,5.125,1.8841443681416772,74.06112340492818,5.094114250780011,3.0124740662784135,3.0124740662784135,5.497726802961384,2.8939592256975564,6.242996075603444,56,2574,166,101,103,199,93,205,2.4475000000000002,5378.960000000001,24.627499999999998,7.449375000000001,7.694375000000001,28.599375,6.0493749999999995,38.11937499999999,68,3887,247,135,130,268,123,307,8,20,13,15,15,19,7,16
1.45,63.15,4.05,2.525,2.6,4.875,2.3,5.025,1.9364916731037085,73.5081628120306,5.054700782440045,3.0124740662784135,3.0495901363953815,5.387485498820391,2.8635642126552705,6.178592072632728,58,2526,162,101,104,195,92,201,2.54,5320.639999999999,23.9875,7.449375000000001,7.859999999999999,27.644375000000004,5.95,37.124375,67,3753,235,129,125,255,121,290,8,19,12,14,14,18,7,15
1.5,61.575,3.95,2.425,2.55,4.8,2.325,4.825,1.9621416870348585,71.4326605972366,4.914264950122246,2.9453352950046283,3.0,5.310367218940701,2.8679260799399975,5.845938761225608,60,2463,158,97,102,192,93,193,2.5275,4988.669375,22.8275,6.784375,7.4375,26.6375,6.0493749999999995,33.494375000000005,67,3666,234,129,127,253,122,285,8,19,12,14,14,18,8,16
1.525,61.425,3.95,2.45,2.55,4.75,2.275,4.85,1.981161275615895,71.36753463585526,4.914264950122246,2.958039891549808,3.0,5.291502622129181,2.832843094843059,5.852349955359813,61,2457,158,98,102,190,91,194,2.424375,4982.549375,22.827499999999997,6.647499999999999,7.4375,26.6775,5.994375,33.6875,65,3713,233,126,130,256,124,289,7,20,12,13,14,18,8,17
1.5,59.725,4.05,2.375,2.525,4.75,2.225,4.825,1.9748417658131499,70.28744553616954,4.954795656734998,2.8939592256975564,2.9958304357890486,5.291502622129181,2.797320146139873,5.841660722773962,60,2389,162,95,101,190,89,193,2.46,4871.849375,22.9875,6.484375,7.474374999999999,26.6775,5.934375,33.359375,65,3721,228,123,128,258,123,289,6,21,12,13,14,18,8,17
1.65,59.125,3.95,2.425,2.475,4.7,2.225,4.7,2.258317958127243,69.97946127257626,4.873397172404482,2.9111853256019273,2.9453352950046283,5.253570214625479,2.797320146139873,5.744562646538029,66,2365,158,97,99,188,89,188,3.1399999999999997,4838.219375,21.6475,6.444374999999999,7.294375,26.389999999999997,5.934375,31.79,66,3581,211,119,124,244,120,269,5,21,11,13,13,17,7,16
1.55,56.625,3.625,2.325,2.45,4.5,2.175,4.425,2.1213203435596424,67.17235294375209,4.41871021905714,2.806243040080456,2.932575659723036,5.059644256269407,2.779388421937459,5.373546315051169,62,2265,145,93,98,180,87,177,2.81,4379.2993750000005,18.259375,5.549375,7.0375,23.777499999999996,5.694375,28.194375,67,3424,204,116,125,234,120,255,5,20,11,13,13,16,6,15
1.575,57.15,3.575,2.375,2.425,4.575,2.2,4.45,2.1272047386182646,67.51148050517038,4.384632253678751,2.8416544476765644,2.9197602641312868,5.125914552545721,2.80178514522438,5.380520420925842,63,2286,143,95,97,183,88,178,2.769375,4412.597500000001,18.274375,5.594375,6.899375000000001,24.244375,5.7475,28.310000000000002,66,3398,205,114,122,237,121,259,5,20,11,14,12,16,6,15
1.575,57.325,3.55,2.275,2.525,4.55,2.175,4.45,2.1272047386182646,67.74308082749116,4.370354676682432,2.659887215654077,3.086259872402193,5.103920062069938,2.7703790354390136,5.380520420925842,63,2293,142,91,101,182,87,178,2.769375,4531.744375,18.377499999999998,5.319374999999999,8.474375,24.61,6.0493749999999995,28.310000000000002,65,3505,196,116,127,246,126,256,5,21,10,15,12,17,7,15
1.7,57.95,3.575,2.275,2.45,4.45,2.175,4.575,2.2693611435820435,68.28067076413353,4.407380174207803,2.659887215654077,3.024896692450835,5.024937810560445,2.7703790354390136,5.552026656996524,68,2318,143,91,98,178,87,183,3.0475000000000003,4640.6275,18.044374999999995,5.319374999999999,8.34,24.25,6.049375,29.444375,66,3354,196,117,127,234,125,252,5,20,10,15,11,16,7,15
1.625,56.45,3.525,2.25,2.5,4.325,2.1,4.35,2.219234102117215,66.11542936410532,4.384632253678751,2.6457513110645907,3.0740852297878796,4.886205071423016,2.701851217221259,5.324471804789654,65,2258,141,90,100,173,84,174,3.034375,4281.0,17.959375,5.1775,8.727500000000001,22.249374999999997,5.477500000000001,27.4475,69,3332,200,117,129,230,124,252,5,20,10,15,11,15,7,15
1.6,57.575,3.625,2.275,2.625,4.4,2.175,4.425,2.2135943621178655,67.05315055983574,4.452527372178637,2.669269563007828,3.2132538026119257,4.924428900898052,2.7703790354390136,5.3595708783446465,64,2303,145,91,105,176,87,177,3.0774999999999997,4383.234375,18.874374999999997,5.234375,9.274375000000001,22.4275,5.644375,28.044375000000002,68,3286,203,120,133,227,128,256,5,20,11,16,11,15,8,15
1.6,57.475,3.65,2.325,2.525,4.4,2.2,4.425,2.2135943621178655,66.92178270189758,4.466542286825459,2.7431733448690405,3.118493225902535,4.924428900898052,2.792848008753788,5.3595708783446465,64,2299,146,93,101,176,88,177,3.3375,4439.774374999999,19.047500000000003,6.144374999999999,8.959375,23.04,6.11,28.044375000000002,69,3401,200,127,140,235,135,256,5,21,11,17,12,16,9,15
1.7,57.85,3.7,2.35,2.525,4.275,2.2,4.45,2.345207879911715,67.1930055883795,4.55521678957215,2.7658633371878665,3.118493225902535,4.834769901453429,2.792848008753788,5.380520420925842,68,2314,148,94,101,171,88,178,3.6774999999999998,4500.46,18.927500000000002,6.21,8.959375,22.424375,6.11,27.847499999999997,75,3264,198,131,140,227,138,247,6,20,11,17,12,16,10,14
1.75,56.25,3.65,2.325,2.55,4.075,2.225,4.225,2.3664319132398464,64.9160996979948,4.488875137492688,2.752271788904577,3.1304951684997055,4.666369038128039,2.797320146139873,5.145386282875174,70,2250,146,93,102,163,89,169,3.6399999999999997,4141.85,18.46,5.949375000000001,8.897499999999999,20.394375000000004,6.069375,25.794374999999995,77,3220,196,133,140,219,138,247,6,20,11,17,12,15,10,14
1.75,56.85,3.775,2.3,2.625,4.175,2.275,4.125,2.3664319132398464,65.35824355045047,4.58530260724415,2.7386127875258306,3.2132538026119257,4.7302219821061255,2.832843094843059,5.067050424063293,70,2274,151,92,105,167,91,165,3.6399999999999997,4188.89,19.759375,5.6775,9.274375000000001,20.749375000000004,5.994375,25.284375,76,3173,203,127,141,218,135,240,6,20,12,16,12,15,9,13
1.725,56.075,3.7,2.225,2.55,4.05,2.2,4.075,2.339871791359518,64.52886950815116,4.560701700396552,2.669269563007828,3.1543620591175006,4.6097722286464435,2.7658633371878665,5.0373604199024715,69,2243,148,89,102,162,88,163,3.8493749999999998,4132.334375,19.36,5.499375000000001,9.0475,20.1475,5.827500000000001,24.774375,74,3235,208,126,145,223,135,242,6,21,12,16,12,16,9,13
1.725,55.575,3.725,2.2,2.625,4.075,2.2,4.025,2.339871791359518,64.35040792411499,4.58530260724415,2.6267851073127395,3.2825295124339706,4.639504283864818,2.7658633371878665,4.987484335815001,69,2223,149,88,105,163,88,161,3.584375,4120.949374999999,18.994374999999998,5.3375,9.724374999999998,20.369374999999998,5.8275,23.824375,73,3131,200,128,149,218,133,227,6,20,11,16,12,16,9,12
1.7,53.4,3.575,2.2,2.575,3.875,2.2,3.775,2.3130067012440754,61.99193495931547,4.384632253678751,2.6267851073127395,3.2672618505409083,4.463742824133129,2.7658633371878665,4.677071733467427,68,2136,143,88,103,155,88,151,3.7875,3780.59,17.599375000000002,5.3375,9.724375,18.299375000000005,5.69,21.349375000000002,76,3024,193,124,151,214,131,223,7,20,11,16,11,15,9,12
1.7,53.55,3.6,2.275,2.525,3.925,2.225,3.775,2.3130067012440754,62.0789819504154,4.387482193696061,2.669269563007828,3.2365104665364517,4.497221364353772,2.7883686987197374,4.677071733467427,68,2142,144,91,101,157,89,151,3.7875,3788.9975000000004,17.6875,5.369375,9.319374999999999,18.469375,5.744375,21.484375,79,2981,195,124,146,216,130,221,8,20,11,16,10,15,9,12
1.7,52.0,3.575,2.275,2.5,3.875,2.1,3.75,2.3130067012440754,60.587952597855626,4.378926809162263,2.669269563007828,3.2171415884290826,4.463742824133129,2.6739483914241875,4.674398357008098,68,2080,143,91,100,155,84,150,3.7875,3644.8900000000003,17.549375,5.369375,9.4475,18.544375,5.46,21.4275,77,2987,194,124,146,221,130,221,8,21,11,16,10,16,9,12
1.7,51.3,3.6,2.3,2.475,3.875,2.075,3.75,2.3130067012440754,60.41440225641565,4.398863489584555,2.701851217221259,3.1741140496207754,4.463742824133129,2.659887215654077,4.674398357008098,68,2052,144,92,99,155,83,150,3.7875,3630.9774999999995,17.247500000000002,5.477500000000001,9.219375,18.544375000000002,5.449375,21.21,79,2874,187,123,145,214,127,212,8,20,10,15,10,15,8,11
1.625,48.75,3.425,2.275,2.425,3.7,2.025,3.6,2.2638462845343543,57.82646452965977,4.17432629294836,2.6972207918522355,3.158322339470751,4.242640687119285,2.6410225292488514,4.4777226354476225,65,1950,137,91,97,148,81,144,3.7443749999999993,3289.8774999999996,15.799375000000001,5.384375,9.024375000000001,16.177500000000002,5.219374999999999,19.627499999999998,82,2736,182,125,148,207,126,205,8,19,10,14,10,14,8,11
1.6,48.725,3.4,2.4,2.475,3.7,2.075,3.575,2.247220505424423,57.81068240386028,4.165333119931706,2.8548204847240397,3.1741140496207754,4.242640687119285,2.659887215654077,4.469339996017309,64,1949,136,96,99,148,83,143,3.8400000000000007,3288.4193750000004,15.910000000000002,5.9,9.024375,16.1775,5.184375,19.644375,81,2705,184,131,144,211,121,202,8,19,10,14,10,14,8,10
1.65,46.725,3.375,2.4,2.35,3.6,1.925,3.475,2.2693611435820435,55.87553131738436,4.162331077653482,2.8548204847240397,3.03315017762062,4.1952353926806065,2.4238399287081647,4.401704215414752,66,1869,135,96,94,144,77,139,4.047499999999999,3101.144375,15.944374999999999,5.9,8.477500000000001,16.0375,4.374374999999999,18.849375000000002,82,2677,179,134,143,213,116,204,8,20,9,14,10,14,8,10
1.675,46.375,3.325,2.425,2.375,3.575,1.925,3.4,2.274862633215465,55.819127546030316,4.1140004861448425,2.8853076092507015,3.053686296920494,4.168333000133266,2.4238399287081647,4.341658669218482,67,1855,133,97,95,143,77,136,4.019374999999999,3098.759375,15.034375,5.999375000000001,8.559375,15.874374999999997,4.374375,18.21,84,2573,171,132,142,205,114,195,9,19,8,13,10,13,8,9
1.675,43.975,3.25,2.4,2.35,3.425,1.95,3.275,2.274862633215465,53.49182180483293,4.031128874149275,2.8722813232690143,3.03315017762062,4.021815510438041,2.4392621835300936,4.210106887004177,67,1759,130,96,94,137,78,131,4.019374999999999,2815.4743750000002,14.559999999999999,5.6899999999999995,8.2,14.284375,4.51,17.269375,84,2439,169,134,140,203,116,195,9,18,8,13,10,13,8,9
1.7,43.75,3.175,2.45,2.35,3.5,2.025,3.2,2.29128784747792,53.342290914432986,3.984344362627307,2.9068883707497264,3.03315017762062,4.049691346263317,2.4849547279578355,4.183300132670378,68,1750,127,98,94,140,81,128,4.040000000000001,2802.4975,14.494375,5.56,8.2,14.2975,4.549375,17.14,84,2411,165,133,138,199,116,189,9,18,7,12,10,13,9,8
1.75,41.625,3.125,2.425,2.3,3.325,1.925,3.175,2.3130067012440754,51.249634145035614,3.946517452134223,2.8939592256975564,2.9832867780352594,3.850324661635691,2.361143790623519,4.156320488124081,70,1665,125,97,92,133,77,127,4.0275,2610.7243749999993,14.074375,5.734375,7.9975,13.199375,4.309375,16.594375000000003,84,2368,164,133,140,196,116,193,9,19,7,13,10,13,10,8
1.85,41.35,3.2,2.425,2.25,3.3,2.0,3.1,2.3979157616563596,51.22011323689162,4.012480529547776,2.8939592256975564,2.932575659723036,3.8340579025361627,2.4392621835300936,4.092676385936225,74,1654,128,97,90,132,80,124,4.1875,2609.8100000000004,14.14,5.734375,7.790000000000001,13.1375,4.51,15.75,86,2273,162,131,134,187,119,180,9,18,7,13,9,12,11,7
1.925,39.55,3.075,2.35,2.2,3.2,2.05,2.925,2.444381312316063,49.17621376234653,3.8697545141778695,2.8548204847240397,2.9154759474226504,3.7013511046643495,2.479919353527449,3.80460247594936,77,1582,123,94,88,128,82,117,4.219374999999999,2375.3975,13.349375,5.26,7.597499999999999,11.45,4.46,13.794374999999999,87,2167,160,131,134,179,118,171,9,17,7,12,9,11,11,7
1.95,39.475,3.025,2.3,2.25,3.225,2.1,2.925,2.449489742783178,49.12662211062349,3.856812155135378,2.819574435974337,2.932575659723036,3.7181984885156414,2.5199206336708304,3.80460247594936,78,1579,121,92,90,129,84,117,4.31,2371.4993749999994,13.374375,5.227500000000001,7.6,11.499375000000002,4.5275,13.794375000000002,89,2116,157,129,135,176,114,169,10,17,7,12,9,11,11,7
1.95,38.3,3.0,2.375,2.225,3.125,1.975,2.825,2.449489742783178,47.3856518368166,3.840572873934304,2.8591956910991594,2.9283100928692645,3.636619309193636,2.39269722280108,3.724916106437835,78,1532,120,95,89,125,79,113,4.04,2236.9900000000002,13.1875,5.694375,7.624375000000001,11.334375,4.224375,12.924375000000001,88,2104,158,129,135,180,114,167,10,18,7,13,9,11,11,7
2.075,38.425,3.075,2.35,2.225,3.075,2.0,2.925,2.669269563007828,47.402795276228176,3.908324449172561,2.8284271247461903,2.9283100928692645,3.5812009158939966,2.4186773244895647,3.830796261875591,83,1537,123,94,89,123,80,117,4.7993749999999995,2240.3943750000003,13.244375,5.597499999999999,7.624375000000001,11.069374999999999,4.2875,13.294374999999999,91,2061,153,132,134,172,113,160,10,17,7,14,8,10,10,6
2.0,38.1,2.875,2.325,2.2,2.9,2.05,2.725,2.598076211353316,46.91002025154114,3.588175023601831,2.8240042492885875,2.924038303442689,3.40587727318528,2.479919353527449,3.50356960827097,80,1524,115,93,88,116,82,109,4.789999999999999,2162.7275,11.374374999999999,5.649375000000001,7.55,9.35,4.1899999999999995,11.509375,96,2024,147,134,137,166,112,161,11,17,7,14,8,9,10,7
2.0,38.725,2.95,2.35,2.2,2.95,2.125,2.725,2.598076211353316,47.51236681117875,3.640054944640259,2.8284271247461903,2.924038303442689,3.449637662132068,2.5248762345905194,3.50356960827097,80,1549,118,94,88,118,85,109,4.9275,2211.524375,12.04,5.597499999999999,7.55,9.497499999999999,4.199375,11.749374999999999,96,1975,148,132,133,165,108,154,11,17,8,14,7,9,10,6
1.975,38.925,2.9,2.325,2.175,2.875,2.0,2.6,2.593260495977988,47.90224420629998,3.598610843089316,2.806243040080456,2.8939592256975564,3.3279122584587473,2.3979157616563596,3.4132096331752027,79,1557,116,93,87,115,80,104,4.969375,2290.109375,11.3875,5.844375,7.694374999999999,9.449375,3.9274999999999998,10.9275,95,2043,153,134,129,171,107,156,10,18,9,15,6,10,10,6
1.975,40.2,3.025,2.25,2.275,2.75,1.975,2.7,2.593260495977988,48.62869523234198,3.784838173555112,2.7386127875258306,3.029026246172192,3.2326459750489227,2.39269722280108,3.5846896657869842,79,1608,121,90,91,110,79,108,4.834375,2364.1875,11.999375,5.6775,8.124375,9.127500000000001,3.9693750000000003,11.5275,94,2006,149,131,138,166,104,151,9,17,8,15,7,9,10,5
1.975,40.625,2.85,2.25,2.275,2.675,1.975,2.5,2.593260495977988,49.38749841812197,3.6193922141707713,2.7386127875258306,3.029026246172192,3.1741140496207754,2.39269722280108,3.2939338184001206,79,1625,114,90,91,107,79,100,4.834375,2412.859375,11.2775,5.3975,7.909375,8.449375,3.694375,9.947500000000002,94,2048,153,126,139,160,103,147,9,17,8,14,7,8,10,4
1.95,41.7,2.85,2.275,2.35,2.7,1.975,2.575,2.588435821108957,50.4534438864187,3.6193922141707713,2.779388421937459,3.0903074280724887,3.2015621187164243,2.39269722280108,3.3726843908080104,78,1668,114,91,94,108,79,103,4.8775,2507.1099999999997,11.66,5.549375,8.11,8.559999999999999,3.694375,10.609375,93,2040,154,127,140,160,100,150,9,17,8,14,7,8,10,5
1.9,42.725,2.875,2.25,2.3,2.725,1.85,2.475,2.5495097567963922,52.08286666457598,3.6297382825763074,2.7658633371878665,3.0740852297878796,3.2519225083018197,2.258317958127243,3.2825295124339706,76,1709,115,90,92,109,74,99,4.81,2708.109375,11.674375,5.6899999999999995,8.127500000000001,9.624374999999999,3.4099999999999993,9.724375,94,2162,158,132,141,169,99,153,9,18,8,15,7,9,10,6
1.9,43.775,3.125,2.275,2.325,2.625,1.825,2.725,2.5495097567963922,52.70412697313181,3.959166578965831,2.797320146139873,3.118493225902535,3.1898275815473163,2.2304708023195463,3.7782270974625125,76,1751,125,91,93,105,73,109,4.81,2777.394375,13.499375,5.794375,8.344375,9.409375,3.3493749999999998,12.384375,95,2138,161,134,140,168,97,156,9,17,8,16,6,8,9,5
1.875,44.525,3.025,2.325,2.35,2.625,1.875,2.625,2.534758371127315,53.81658666247795,3.882653731663435,2.8151376520518494,3.138470965295043,3.1898275815473163,2.274862633215465,3.6708309685955305,75,1781,121,93,94,105,75,105,4.9243749999999995,2875.7493750000003,13.184375,6.034375,8.16,9.019375,3.284375,11.849374999999998,99,2192,168,138,140,169,96,158,10,17,8,17,6,8,9,4
1.85,45.6,3.0,2.325,2.4,2.725,1.95,2.7,2.5199206336708304,54.79644149030118,3.866522985836241,2.8151376520518494,3.170173496829472,3.2825295124339706,2.355843797877949,3.7416573867739413,74,1824,120,93,96,109,78,108,5.0275,2971.29,13.3875,6.034375,8.227500000000001,9.274375,3.4475000000000002,12.559999999999999,97,2176,170,141,139,166,97,161,10,16,8,18,6,8,9,5
1.875,47.975,2.925,2.4,2.425,2.775,1.975,2.675,2.5248762345905194,57.27586751852826,3.8177218337642147,2.8809720581775866,3.1741140496207754,3.342902930089356,2.3717082451262845,3.731621631409058,75,1919,117,96,97,111,79,107,5.109375,3270.1243749999994,13.309375,6.7375,8.319374999999999,10.124375,3.734375,12.659375,90,2318,169,146,141,176,100,165,10,16,8,19,7,9,10,5
1.8,48.625,3.075,2.45,2.55,2.725,2.0,2.825,2.355843797877949,57.69423714722294,4.009364039345891,2.932575659723036,3.3466401061363023,3.3128537546954893,2.4186773244895647,3.927467377331096,72,1945,123,98,102,109,80,113,4.4475,3326.734375,14.449375,6.909999999999999,9.0975,10.024375000000001,3.8900000000000006,13.799374999999998,89,2371,176,151,148,180,103,174,11,16,9,19,8,10,11,6
1.775,50.475,3.075,2.45,2.525,2.825,2.025,2.8,2.3505318547086316,59.71117985771174,4.009364039345891,2.932575659723036,3.342902930089356,3.4022051672408,2.4238399287081647,3.9179076048319463,71,2019,123,98,101,113,81,112,4.474375,3555.0243749999995,14.449374999999998,6.909999999999999,9.144375,10.419374999999999,3.984375,13.7875,93,2495,182,152,153,179,106,177,11,17,9,19,8,10,12,6
1.75,50.8,3.125,2.4,2.7,2.85,2.05,2.875,2.345207879911715,60.039570284937916,4.046603514059662,2.898275349237888,3.570714214271425,3.449637662132068,2.4596747752497685,3.984344362627307,70,2032,125,96,108,114,82,115,4.5,3592.1475000000005,14.874374999999997,6.8375,10.0275,10.690000000000001,4.090000000000001,14.494375,93,2382,186,148,155,171,105,182,11,16,9,19,8,9,12,7
1.725,51.2,3.2,2.35,2.525,2.85,2.025,2.925,2.339871791359518,60.70873083832341,4.110960958218893,2.8635642126552705,3.3948490393535913,3.449637662132068,2.434132288927617,4.009364039345891,69,2048,128,94,101,114,81,117,4.524375000000001,3675.6275,14.940000000000001,6.51,8.194375,10.69,3.894375,14.449374999999998,89,2536,186,144,157,180,105,179,11,17,9,19,8,10,12,7
1.65,50.625,3.25,2.425,2.65,2.8,2.05,2.9,2.224859546128699,60.14253902189365,4.207136793592526,2.979093821953246,3.521363372331802,3.4351128074635335,2.4698178070456938,3.9496835316262997,66,2025,130,97,106,112,82,116,4.14,3603.2493749999994,15.597500000000002,6.984375,8.4,10.4775,3.9975,14.0375,86,2459,184,147,160,179,107,176,11,16,9,19,8,10,12,7
1.675,51.425,3.25,2.45,2.625,2.85,2.025,2.925,2.2304708023195463,61.236631194081866,4.207136793592526,2.9916550603303182,3.4964267474094175,3.492849839314596,2.4647515087732477,3.959166578965831,67,2057,130,98,105,114,81,117,4.119375,3729.4493749999992,15.74,6.847499999999999,8.124375,10.76,3.899375,14.294374999999999,87,2595,188,147,159,183,106,182,11,17,9,18,8,10,11,8
1.725,51.225,3.15,2.525,2.5,2.875,2.0,2.875,2.252776065213762,60.99446696217617,4.135214625627067,3.1024184114977142,3.3689761055846033,3.5249113464029134,2.4289915602982237,3.9210967853395307,69,2049,126,101,100,115,80,115,4.124375,3701.6193750000007,14.85,7.299375,7.74,10.924375000000001,3.7975000000000003,13.874374999999997,86,2460,186,143,156,174,102,178,11,16,9,17,8,9,10,8
1.7,51.8,3.15,2.425,2.525,2.775,1.95,2.975,2.23606797749979,61.9067847654843,4.135214625627067,3.0041637771599605,3.3800887562311144,3.4387497728098797,2.3874672772626644,3.9717754216471,68,2072,126,97,101,111,78,119,3.8975,3818.3875,14.377500000000001,6.219375,7.524375000000001,10.069374999999999,3.2975000000000003,14.019375000000002,80,2609,178,140,151,174,99,179,10,17,8,16,7,9,9,9
1.625,51.65,3.025,2.375,2.5,2.775,1.975,3.025,2.115419580130618,61.77823241239587,3.933827652554189,2.9706901555025893,3.3466401061363023,3.4387497728098797,2.4135036772294343,4.046603514059662,65,2066,121,95,100,111,79,121,3.5243750000000005,3801.34,13.149375000000001,6.184375,7.397499999999999,10.069374999999999,3.3443749999999994,14.484375,78,2550,175,138,150,175,100,178,10,16,8,16,7,9,9,9
1.6,52.625,2.925,2.475,2.55,2.875,2.05,3.025,2.0976176963403033,63.05136794709533,3.856812155135378,3.07001628660175,3.391164991562634,3.4964267474094175,2.4899799195977463,4.046603514059662,64,2105,117,99,102,115,82,121,3.4975,3951.709375,12.984375,6.449375000000001,7.5,10.194375,3.4775000000000005,14.619375000000002,78,2699,169,142,147,173,99,183,10,17,7,16,7,9,9,10
1.675,52.725,2.9,2.525,2.5,2.95,2.075,3.075,2.185177338341216,63.149623910202344,3.82099463490856,3.1024184114977142,3.331666249791536,3.63318042491699,2.5248762345905194,4.083503397819084,67,2109,116,101,100,118,83,123,3.7243749999999998,3963.1243749999994,12.64,6.474375,7.297499999999999,10.95,3.5693749999999995,15.049374999999998,78,2622,167,144,144,170,97,182,9,16,7,16,7,8,9,10
1.675,54.175,2.95,2.575,2.5,3.0,2.15,3.1,2.185177338341216,65.02749418515218,3.8340579025361627,3.1344856037314957,3.331666249791536,3.6742346141747673,2.598076211353316,4.09878030638384,67,2167,118,103,100,120,86,124,3.7243749999999998,4216.149375,12.5975,7.019374999999999,7.49,11.397499999999999,4.3475,15.11,80,2757,169,147,142,174,104,187,9,17,8,17,8,8,10,11
1.75,54.925,3.075,2.575,2.4,2.925,2.125,3.25,2.3021728866442674,65.34963657129242,4.071240597164456,3.1344856037314957,3.1780497164141406,3.5812009158939966,2.583602136552763,4.347413023856832,70,2197,123,103,96,117,85,130,4.090000000000001,4262.874375,14.094375000000003,7.019374999999999,6.859999999999999,10.934375,4.349375,16.7975,83,2788,175,154,139,175,108,189,9,16,8,18,9,9,11,11
1.725,56.95,3.025,2.5,2.45,3.05,2.1,3.325,2.285825890132492,67.34871936421658,4.046603514059662,3.0740852297878796,3.1937438845342623,3.6674241641784495,2.5787593916455256,4.3903302837030385,69,2278,121,100,98,122,84,133,3.8443749999999994,4512.8099999999995,14.199375,6.890000000000001,6.777500000000001,11.2,4.4,17.384375,83,2923,182,156,139,173,107,202,8,17,9,18,9,9,11,12
1.725,57.6,3.05,2.5,2.475,3.125,2.125,3.4,2.285825890132492,67.8487288016511,4.05585995813465,3.0740852297878796,3.2054640849649214,3.7782270974625125,2.6124700955226263,4.449719092257398,69,2304,122,100,99,125,85,136,4.069374999999999,4573.7475,14.347500000000002,6.890000000000001,6.759375,11.794374999999999,4.499375000000001,18.11,85,2897,183,156,136,169,108,201,9,16,9,18,9,8,11,12
1.7,59.725,3.175,2.475,2.45,3.175,2.15,3.5,2.280350850198276,70.02196084086764,4.162331077653482,3.07001628660175,3.1937438845342623,3.8177218337642147,2.6172504656604803,4.494441010848846,68,2389,127,99,98,127,86,140,4.097499999999999,4892.019375,14.684375,6.944374999999999,6.590000000000001,12.249375,4.6,18.240000000000002,84,3048,186,156,132,175,112,207,9,17,10,18,8,9,12,13
1.7,60.8,3.225,2.425,2.375,3.125,2.2,3.625,2.280350850198276,70.36654034411525,4.22196636651691,3.020761493398643,3.110466202999158,3.7914377220257753,2.6551836094703507,4.644889664997437,68,2432,129,97,95,125,88,145,4.0975,4946.3875,15.019375,6.799375,6.344374999999999,12.344375000000001,4.6475,19.249374999999997,84,3107,184,154,130,173,115,211,9,17,10,18,8,9,13,13
